BEGIN_SCAN_DATA
	FORMAT=CC-Export V1.9                  
	FILE_CREATION_DATE=07-Oct-2010 14:18:55
	LAST_MODIFIED=07-Oct-2010 14:18:55
	BEGIN_SCAN  1
		TASK_NAME=MODE_INTERVAL
		PROGRAM=BeamAdjust 1.2
		MEAS_DATE=07-Oct-2010 14:18:55
		LINAC=A4
		MODALITY=X
		INPLANE_AXIS_DIR=TARGET_GUN
		CROSSPLANE_AXIS_DIR=LEFT_RIGHT
		DEPTH_AXIS_DIR=UP_DOWN
		ENERGY=6.00
		SSD=950.00
		WEDGE=None
		FIELD_INPLANE=100.00
		FIELD_CROSSPLANE=100.00
		FIELD_TYPE=RECTANGULAR
		GANTRY=0.00
		GANTRY_UPRIGHT_POSITION=0
		GANTRY_ROTATION=CW
		COLL_ANGLE=90.00
		COLL_OFFSET_INPLANE=0.00
		COLL_OFFSET_CROSSPLANE=0.00
		SCAN_DEVICE=STARCHECK
		ELECTROMETER=2D_ARRAY_INTERFACE
		DETECTOR=STARCHECK
		SCAN_CURVETYPE=CROSSPLANE_PROFILE
		SCAN_DEPTH=0.00
		SCAN_OFFAXIS_INPLANE=-130.00
		SCAN_ANGLE=0.00
		SCAN_DIAGONAL=NOT_DIAGONAL
		MEAS_PRESET=TIME_PRESET
		MEAS_TIME=10.000
		MEAS_UNIT=GY
		PRESSURE=1013.25
		TEMPERATURE=20.00
		NORM_TEMPERATURE=20.00
		CORRECTION_FACTOR=1.0000
		CORRECTIONS=AIR_DENSITY_CORR;
		BEGIN_DATA
			-130.00		2.5936E-03
			-80.00		4.1418E-03
			-40.00		7.5786E-03
			40.00		7.3423E-03
			80.00		4.0904E-03
			130.00		2.0257E-03
		END_DATA
	END_SCAN  1
	BEGIN_SCAN  2
		TASK_NAME=MODE_INTERVAL
		PROGRAM=BeamAdjust 1.2
		MEAS_DATE=07-Oct-2010 14:18:55
		LINAC=A4
		MODALITY=X
		INPLANE_AXIS_DIR=TARGET_GUN
		CROSSPLANE_AXIS_DIR=LEFT_RIGHT
		DEPTH_AXIS_DIR=UP_DOWN
		ENERGY=6.00
		SSD=950.00
		WEDGE=None
		FIELD_INPLANE=100.00
		FIELD_CROSSPLANE=100.00
		FIELD_TYPE=RECTANGULAR
		GANTRY=0.00
		GANTRY_UPRIGHT_POSITION=0
		GANTRY_ROTATION=CW
		COLL_ANGLE=90.00
		COLL_OFFSET_INPLANE=0.00
		COLL_OFFSET_CROSSPLANE=0.00
		SCAN_DEVICE=STARCHECK
		ELECTROMETER=2D_ARRAY_INTERFACE
		DETECTOR=STARCHECK
		SCAN_CURVETYPE=CROSSPLANE_PROFILE
		SCAN_DEPTH=0.00
		SCAN_OFFAXIS_INPLANE=-100.00
		SCAN_ANGLE=0.00
		SCAN_DIAGONAL=NOT_DIAGONAL
		MEAS_PRESET=TIME_PRESET
		MEAS_TIME=10.000
		MEAS_UNIT=GY
		PRESSURE=1013.25
		TEMPERATURE=20.00
		NORM_TEMPERATURE=20.00
		CORRECTION_FACTOR=1.0000
		CORRECTIONS=AIR_DENSITY_CORR;
		BEGIN_DATA
			-60.00		10.766E-03
			-30.00		14.490E-03
			30.00		15.105E-03
			60.00		10.173E-03
		END_DATA
	END_SCAN  2
	BEGIN_SCAN  3
		TASK_NAME=MODE_INTERVAL
		PROGRAM=BeamAdjust 1.2
		MEAS_DATE=07-Oct-2010 14:18:55
		LINAC=A4
		MODALITY=X
		INPLANE_AXIS_DIR=TARGET_GUN
		CROSSPLANE_AXIS_DIR=LEFT_RIGHT
		DEPTH_AXIS_DIR=UP_DOWN
		ENERGY=6.00
		SSD=950.00
		WEDGE=None
		FIELD_INPLANE=100.00
		FIELD_CROSSPLANE=100.00
		FIELD_TYPE=RECTANGULAR
		GANTRY=0.00
		GANTRY_UPRIGHT_POSITION=0
		GANTRY_ROTATION=CW
		COLL_ANGLE=90.00
		COLL_OFFSET_INPLANE=0.00
		COLL_OFFSET_CROSSPLANE=0.00
		SCAN_DEVICE=STARCHECK
		ELECTROMETER=2D_ARRAY_INTERFACE
		DETECTOR=STARCHECK
		SCAN_CURVETYPE=CROSSPLANE_PROFILE
		SCAN_DEPTH=0.00
		SCAN_OFFAXIS_INPLANE=-50.00
		SCAN_ANGLE=0.00
		SCAN_DIAGONAL=NOT_DIAGONAL
		MEAS_PRESET=TIME_PRESET
		MEAS_TIME=10.000
		MEAS_UNIT=GY
		PRESSURE=1013.25
		TEMPERATURE=20.00
		NORM_TEMPERATURE=20.00
		CORRECTION_FACTOR=1.0000
		CORRECTIONS=AIR_DENSITY_CORR;
		BEGIN_DATA
			-30.00		418.66E-03
			-15.00		379.36E-03
			15.00		406.95E-03
			30.00		415.35E-03
		END_DATA
	END_SCAN  3
	BEGIN_SCAN  4
		TASK_NAME=MODE_INTERVAL
		PROGRAM=BeamAdjust 1.2
		MEAS_DATE=07-Oct-2010 14:18:55
		LINAC=A4
		MODALITY=X
		INPLANE_AXIS_DIR=TARGET_GUN
		CROSSPLANE_AXIS_DIR=LEFT_RIGHT
		DEPTH_AXIS_DIR=UP_DOWN
		ENERGY=6.00
		SSD=950.00
		WEDGE=None
		FIELD_INPLANE=100.00
		FIELD_CROSSPLANE=100.00
		FIELD_TYPE=RECTANGULAR
		GANTRY=0.00
		GANTRY_UPRIGHT_POSITION=0
		GANTRY_ROTATION=CW
		COLL_ANGLE=90.00
		COLL_OFFSET_INPLANE=0.00
		COLL_OFFSET_CROSSPLANE=0.00
		SCAN_DEVICE=STARCHECK
		ELECTROMETER=2D_ARRAY_INTERFACE
		DETECTOR=STARCHECK
		SCAN_CURVETYPE=CROSSPLANE_PROFILE
		SCAN_DEPTH=0.00
		SCAN_OFFAXIS_INPLANE=0.00
		SCAN_ANGLE=0.00
		SCAN_DIAGONAL=NOT_DIAGONAL
		MEAS_PRESET=TIME_PRESET
		MEAS_TIME=10.000
		MEAS_UNIT=GY
		PRESSURE=1013.25
		TEMPERATURE=20.00
		NORM_TEMPERATURE=20.00
		CORRECTION_FACTOR=1.0000
		CORRECTIONS=AIR_DENSITY_CORR;
		BEGIN_DATA
			-126.00		6.6200E-03
			-123.00		7.5578E-03
			-120.00		7.7247E-03
			-117.00		8.5452E-03
			-114.00		8.9241E-03
			-111.00		9.6366E-03
			-108.00		10.744E-03
			-105.00		10.947E-03
			-102.00		11.869E-03
			-99.00		12.844E-03
			-96.00		13.852E-03
			-93.00		15.391E-03
			-90.00		16.722E-03
			-87.00		18.006E-03
			-84.00		20.255E-03
			-81.00		21.670E-03
			-78.00		24.010E-03
			-75.00		27.100E-03
			-72.00		29.976E-03
			-69.00		34.403E-03
			-66.00		39.361E-03
			-63.00		44.931E-03
			-60.00		54.701E-03
			-57.00		72.487E-03
			-54.00		114.33E-03
			-51.00		291.21E-03
			-48.00		555.32E-03
			-45.00		617.23E-03
			-42.00		636.58E-03
			-39.00		649.04E-03
			-36.00		655.19E-03
			-33.00		655.54E-03
			-30.00		657.45E-03
			-27.00		660.26E-03
			-24.00		662.27E-03
			-21.00		662.03E-03
			-18.00		667.78E-03
			-15.00		668.76E-03
			-12.00		668.25E-03
			-9.00		670.14E-03
			-6.00		668.75E-03
			0.00		668.48E-03
			6.00		671.76E-03
			9.00		671.10E-03
			12.00		668.97E-03
			15.00		667.59E-03
			18.00		666.68E-03
			21.00		664.66E-03
			24.00		662.06E-03
			27.00		665.67E-03
			30.00		664.04E-03
			33.00		661.46E-03
			36.00		657.78E-03
			39.00		651.77E-03
			42.00		640.45E-03
			45.00		615.66E-03
			48.00		526.62E-03
			51.00		232.70E-03
			54.00		102.07E-03
			57.00		68.359E-03
			60.00		53.126E-03
			63.00		44.125E-03
			66.00		38.235E-03
			69.00		33.095E-03
			72.00		29.693E-03
			75.00		26.508E-03
			78.00		23.591E-03
			81.00		21.529E-03
			84.00		19.620E-03
			87.00		17.834E-03
			90.00		16.841E-03
			93.00		15.127E-03
			96.00		13.198E-03
			99.00		12.583E-03
			102.00		11.735E-03
			105.00		11.055E-03
			108.00		11.105E-03
			111.00		9.1041E-03
			114.00		8.6037E-03
			117.00		7.9237E-03
			120.00		7.1802E-03
			123.00		7.0894E-03
			126.00		7.0161E-03
		END_DATA
	END_SCAN  4
	BEGIN_SCAN  5
		TASK_NAME=MODE_INTERVAL
		PROGRAM=BeamAdjust 1.2
		MEAS_DATE=07-Oct-2010 14:18:55
		LINAC=A4
		MODALITY=X
		INPLANE_AXIS_DIR=TARGET_GUN
		CROSSPLANE_AXIS_DIR=LEFT_RIGHT
		DEPTH_AXIS_DIR=UP_DOWN
		ENERGY=6.00
		SSD=950.00
		WEDGE=None
		FIELD_INPLANE=100.00
		FIELD_CROSSPLANE=100.00
		FIELD_TYPE=RECTANGULAR
		GANTRY=0.00
		GANTRY_UPRIGHT_POSITION=0
		GANTRY_ROTATION=CW
		COLL_ANGLE=90.00
		COLL_OFFSET_INPLANE=0.00
		COLL_OFFSET_CROSSPLANE=0.00
		SCAN_DEVICE=STARCHECK
		ELECTROMETER=2D_ARRAY_INTERFACE
		DETECTOR=STARCHECK
		SCAN_CURVETYPE=CROSSPLANE_PROFILE
		SCAN_DEPTH=0.00
		SCAN_OFFAXIS_INPLANE=50.00
		SCAN_ANGLE=0.00
		SCAN_DIAGONAL=NOT_DIAGONAL
		MEAS_PRESET=TIME_PRESET
		MEAS_TIME=10.000
		MEAS_UNIT=GY
		PRESSURE=1013.25
		TEMPERATURE=20.00
		NORM_TEMPERATURE=20.00
		CORRECTION_FACTOR=1.0000
		CORRECTIONS=AIR_DENSITY_CORR;
		BEGIN_DATA
			-30.00		249.21E-03
			-15.00		261.21E-03
			15.00		232.60E-03
			30.00		239.43E-03
		END_DATA
	END_SCAN  5
	BEGIN_SCAN  6
		TASK_NAME=MODE_INTERVAL
		PROGRAM=BeamAdjust 1.2
		MEAS_DATE=07-Oct-2010 14:18:55
		LINAC=A4
		MODALITY=X
		INPLANE_AXIS_DIR=TARGET_GUN
		CROSSPLANE_AXIS_DIR=LEFT_RIGHT
		DEPTH_AXIS_DIR=UP_DOWN
		ENERGY=6.00
		SSD=950.00
		WEDGE=None
		FIELD_INPLANE=100.00
		FIELD_CROSSPLANE=100.00
		FIELD_TYPE=RECTANGULAR
		GANTRY=0.00
		GANTRY_UPRIGHT_POSITION=0
		GANTRY_ROTATION=CW
		COLL_ANGLE=90.00
		COLL_OFFSET_INPLANE=0.00
		COLL_OFFSET_CROSSPLANE=0.00
		SCAN_DEVICE=STARCHECK
		ELECTROMETER=2D_ARRAY_INTERFACE
		DETECTOR=STARCHECK
		SCAN_CURVETYPE=CROSSPLANE_PROFILE
		SCAN_DEPTH=0.00
		SCAN_OFFAXIS_INPLANE=100.00
		SCAN_ANGLE=0.00
		SCAN_DIAGONAL=NOT_DIAGONAL
		MEAS_PRESET=TIME_PRESET
		MEAS_TIME=10.000
		MEAS_UNIT=GY
		PRESSURE=1013.25
		TEMPERATURE=20.00
		NORM_TEMPERATURE=20.00
		CORRECTION_FACTOR=1.0000
		CORRECTIONS=AIR_DENSITY_CORR;
		BEGIN_DATA
			-60.00		10.078E-03
			-30.00		14.787E-03
			30.00		14.663E-03
			60.00		8.5845E-03
		END_DATA
	END_SCAN  6
	BEGIN_SCAN  7
		TASK_NAME=MODE_INTERVAL
		PROGRAM=BeamAdjust 1.2
		MEAS_DATE=07-Oct-2010 14:18:55
		LINAC=A4
		MODALITY=X
		INPLANE_AXIS_DIR=TARGET_GUN
		CROSSPLANE_AXIS_DIR=LEFT_RIGHT
		DEPTH_AXIS_DIR=UP_DOWN
		ENERGY=6.00
		SSD=950.00
		WEDGE=None
		FIELD_INPLANE=100.00
		FIELD_CROSSPLANE=100.00
		FIELD_TYPE=RECTANGULAR
		GANTRY=0.00
		GANTRY_UPRIGHT_POSITION=0
		GANTRY_ROTATION=CW
		COLL_ANGLE=90.00
		COLL_OFFSET_INPLANE=0.00
		COLL_OFFSET_CROSSPLANE=0.00
		SCAN_DEVICE=STARCHECK
		ELECTROMETER=2D_ARRAY_INTERFACE
		DETECTOR=STARCHECK
		SCAN_CURVETYPE=CROSSPLANE_PROFILE
		SCAN_DEPTH=0.00
		SCAN_OFFAXIS_INPLANE=130.00
		SCAN_ANGLE=0.00
		SCAN_DIAGONAL=NOT_DIAGONAL
		MEAS_PRESET=TIME_PRESET
		MEAS_TIME=10.000
		MEAS_UNIT=GY
		PRESSURE=1013.25
		TEMPERATURE=20.00
		NORM_TEMPERATURE=20.00
		CORRECTION_FACTOR=1.0000
		CORRECTIONS=AIR_DENSITY_CORR;
		BEGIN_DATA
			-130.00		1.8314E-03
			-80.00		3.7745E-03
			-40.00		7.5635E-03
			40.00		7.1760E-03
			80.00		4.0492E-03
			130.00		2.0889E-03
		END_DATA
	END_SCAN  7
	BEGIN_SCAN  8
		TASK_NAME=MODE_INTERVAL
		PROGRAM=BeamAdjust 1.2
		MEAS_DATE=07-Oct-2010 14:18:55
		LINAC=A4
		MODALITY=X
		INPLANE_AXIS_DIR=TARGET_GUN
		CROSSPLANE_AXIS_DIR=LEFT_RIGHT
		DEPTH_AXIS_DIR=UP_DOWN
		ENERGY=6.00
		SSD=950.00
		WEDGE=None
		FIELD_INPLANE=100.00
		FIELD_CROSSPLANE=100.00
		FIELD_TYPE=RECTANGULAR
		GANTRY=0.00
		GANTRY_UPRIGHT_POSITION=0
		GANTRY_ROTATION=CW
		COLL_ANGLE=90.00
		COLL_OFFSET_INPLANE=0.00
		COLL_OFFSET_CROSSPLANE=0.00
		SCAN_DEVICE=STARCHECK
		ELECTROMETER=2D_ARRAY_INTERFACE
		DETECTOR=STARCHECK
		SCAN_CURVETYPE=INPLANE_PROFILE
		SCAN_DEPTH=0.00
		SCAN_OFFAXIS_CROSSPLANE=-130.00
		SCAN_ANGLE=0.00
		SCAN_DIAGONAL=NOT_DIAGONAL
		MEAS_PRESET=TIME_PRESET
		MEAS_TIME=10.000
		MEAS_UNIT=GY
		PRESSURE=1013.25
		TEMPERATURE=20.00
		NORM_TEMPERATURE=20.00
		CORRECTION_FACTOR=1.0000
		CORRECTIONS=AIR_DENSITY_CORR;
		BEGIN_DATA
			-130.00		2.5936E-03
			-125.00		3.2310E-03
			-120.00		2.9852E-03
			-115.00		3.3273E-03
			-110.00		3.1937E-03
			-105.00		3.4445E-03
			-100.00		3.9543E-03
			-95.00		4.4956E-03
			-90.00		4.6614E-03
			-85.00		4.3499E-03
			-80.00		4.3157E-03
			-75.00		4.8938E-03
			-70.00		4.7132E-03
			-65.00		5.1869E-03
			-60.00		5.1322E-03
			-55.00		6.5667E-03
			-50.00		4.1915E-03
			-45.00		4.2380E-03
			-40.00		4.9418E-03
			-35.00		5.8640E-03
			-30.00		5.5723E-03
			-25.00		5.0289E-03
			-20.00		4.8855E-03
			-15.00		4.8979E-03
			-10.00		5.5237E-03
			-5.00		6.0522E-03
			0.00		5.9171E-03
			5.00		6.1324E-03
			10.00		5.5233E-03
			15.00		5.9143E-03
			20.00		5.9368E-03
			25.00		5.0955E-03
			30.00		5.4214E-03
			35.00		5.2736E-03
			40.00		5.0285E-03
			45.00		4.8369E-03
			50.00		4.7900E-03
			55.00		4.2758E-03
			60.00		4.2124E-03
			65.00		3.8565E-03
			70.00		4.0013E-03
			75.00		4.0699E-03
			80.00		3.5493E-03
			85.00		3.3262E-03
			90.00		3.0138E-03
			95.00		3.3176E-03
			100.00		3.2073E-03
			105.00		2.4696E-03
			110.00		2.3412E-03
			115.00		2.2549E-03
			120.00		2.3193E-03
			125.00		2.4222E-03
			130.00		1.8314E-03
		END_DATA
	END_SCAN  8
	BEGIN_SCAN  9
		TASK_NAME=MODE_INTERVAL
		PROGRAM=BeamAdjust 1.2
		MEAS_DATE=07-Oct-2010 14:18:55
		LINAC=A4
		MODALITY=X
		INPLANE_AXIS_DIR=TARGET_GUN
		CROSSPLANE_AXIS_DIR=LEFT_RIGHT
		DEPTH_AXIS_DIR=UP_DOWN
		ENERGY=6.00
		SSD=950.00
		WEDGE=None
		FIELD_INPLANE=100.00
		FIELD_CROSSPLANE=100.00
		FIELD_TYPE=RECTANGULAR
		GANTRY=0.00
		GANTRY_UPRIGHT_POSITION=0
		GANTRY_ROTATION=CW
		COLL_ANGLE=90.00
		COLL_OFFSET_INPLANE=0.00
		COLL_OFFSET_CROSSPLANE=0.00
		SCAN_DEVICE=STARCHECK
		ELECTROMETER=2D_ARRAY_INTERFACE
		DETECTOR=STARCHECK
		SCAN_CURVETYPE=INPLANE_PROFILE
		SCAN_DEPTH=0.00
		SCAN_OFFAXIS_CROSSPLANE=-100.00
		SCAN_ANGLE=0.00
		SCAN_DIAGONAL=NOT_DIAGONAL
		MEAS_PRESET=TIME_PRESET
		MEAS_TIME=10.000
		MEAS_UNIT=GY
		PRESSURE=1013.25
		TEMPERATURE=20.00
		NORM_TEMPERATURE=20.00
		CORRECTION_FACTOR=1.0000
		CORRECTIONS=AIR_DENSITY_CORR;
		BEGIN_DATA
			-60.00		8.1300E-03
			-30.00		10.432E-03
			30.00		10.220E-03
			60.00		8.3441E-03
		END_DATA
	END_SCAN  9
	BEGIN_SCAN  10
		TASK_NAME=MODE_INTERVAL
		PROGRAM=BeamAdjust 1.2
		MEAS_DATE=07-Oct-2010 14:18:55
		LINAC=A4
		MODALITY=X
		INPLANE_AXIS_DIR=TARGET_GUN
		CROSSPLANE_AXIS_DIR=LEFT_RIGHT
		DEPTH_AXIS_DIR=UP_DOWN
		ENERGY=6.00
		SSD=950.00
		WEDGE=None
		FIELD_INPLANE=100.00
		FIELD_CROSSPLANE=100.00
		FIELD_TYPE=RECTANGULAR
		GANTRY=0.00
		GANTRY_UPRIGHT_POSITION=0
		GANTRY_ROTATION=CW
		COLL_ANGLE=90.00
		COLL_OFFSET_INPLANE=0.00
		COLL_OFFSET_CROSSPLANE=0.00
		SCAN_DEVICE=STARCHECK
		ELECTROMETER=2D_ARRAY_INTERFACE
		DETECTOR=STARCHECK
		SCAN_CURVETYPE=INPLANE_PROFILE
		SCAN_DEPTH=0.00
		SCAN_OFFAXIS_CROSSPLANE=-50.00
		SCAN_ANGLE=0.00
		SCAN_DIAGONAL=NOT_DIAGONAL
		MEAS_PRESET=TIME_PRESET
		MEAS_TIME=10.000
		MEAS_UNIT=GY
		PRESSURE=1013.25
		TEMPERATURE=20.00
		NORM_TEMPERATURE=20.00
		CORRECTION_FACTOR=1.0000
		CORRECTIONS=AIR_DENSITY_CORR;
		BEGIN_DATA
			-30.00		397.09E-03
			-15.00		393.60E-03
			15.00		383.50E-03
			30.00		373.12E-03
		END_DATA
	END_SCAN  10
	BEGIN_SCAN  11
		TASK_NAME=MODE_INTERVAL
		PROGRAM=BeamAdjust 1.2
		MEAS_DATE=07-Oct-2010 14:18:55
		LINAC=A4
		MODALITY=X
		INPLANE_AXIS_DIR=TARGET_GUN
		CROSSPLANE_AXIS_DIR=LEFT_RIGHT
		DEPTH_AXIS_DIR=UP_DOWN
		ENERGY=6.00
		SSD=950.00
		WEDGE=None
		FIELD_INPLANE=100.00
		FIELD_CROSSPLANE=100.00
		FIELD_TYPE=RECTANGULAR
		GANTRY=0.00
		GANTRY_UPRIGHT_POSITION=0
		GANTRY_ROTATION=CW
		COLL_ANGLE=90.00
		COLL_OFFSET_INPLANE=0.00
		COLL_OFFSET_CROSSPLANE=0.00
		SCAN_DEVICE=STARCHECK
		ELECTROMETER=2D_ARRAY_INTERFACE
		DETECTOR=STARCHECK
		SCAN_CURVETYPE=INPLANE_PROFILE
		SCAN_DEPTH=0.00
		SCAN_OFFAXIS_CROSSPLANE=0.00
		SCAN_ANGLE=0.00
		SCAN_DIAGONAL=NOT_DIAGONAL
		MEAS_PRESET=TIME_PRESET
		MEAS_TIME=10.000
		MEAS_UNIT=GY
		PRESSURE=1013.25
		TEMPERATURE=20.00
		NORM_TEMPERATURE=20.00
		CORRECTION_FACTOR=1.0000
		CORRECTIONS=AIR_DENSITY_CORR;
		BEGIN_DATA
			-126.00		9.2105E-03
			-123.00		8.8507E-03
			-120.00		10.299E-03
			-117.00		11.504E-03
			-114.00		11.984E-03
			-111.00		12.919E-03
			-108.00		14.246E-03
			-105.00		14.531E-03
			-102.00		16.059E-03
			-99.00		16.868E-03
			-96.00		18.481E-03
			-93.00		20.604E-03
			-90.00		22.024E-03
			-87.00		23.575E-03
			-84.00		25.801E-03
			-81.00		28.438E-03
			-78.00		31.019E-03
			-75.00		33.575E-03
			-72.00		36.814E-03
			-69.00		40.939E-03
			-66.00		46.854E-03
			-63.00		53.356E-03
			-60.00		64.035E-03
			-57.00		85.380E-03
			-54.00		142.84E-03
			-51.00		334.40E-03
			-48.00		570.90E-03
			-45.00		627.25E-03
			-42.00		645.22E-03
			-39.00		653.54E-03
			-36.00		658.83E-03
			-33.00		662.11E-03
			-30.00		665.96E-03
			-27.00		666.86E-03
			-24.00		666.55E-03
			-21.00		664.91E-03
			-18.00		671.61E-03
			-15.00		670.64E-03
			-12.00		671.59E-03
			-9.00		671.32E-03
			-6.00		668.32E-03
			0.00		668.48E-03
			6.00		672.64E-03
			9.00		672.01E-03
			12.00		671.17E-03
			15.00		668.74E-03
			18.00		664.42E-03
			21.00		664.05E-03
			24.00		660.87E-03
			27.00		662.82E-03
			30.00		657.86E-03
			33.00		655.32E-03
			36.00		652.57E-03
			39.00		641.19E-03
			42.00		628.30E-03
			45.00		590.08E-03
			48.00		405.02E-03
			51.00		173.56E-03
			54.00		93.385E-03
			57.00		67.348E-03
			60.00		55.303E-03
			63.00		47.629E-03
			66.00		42.565E-03
			69.00		38.381E-03
			72.00		34.163E-03
			75.00		30.677E-03
			78.00		27.492E-03
			81.00		25.571E-03
			84.00		23.698E-03
			87.00		21.858E-03
			90.00		20.495E-03
			93.00		18.837E-03
			96.00		17.226E-03
			99.00		15.779E-03
			102.00		14.148E-03
			105.00		13.194E-03
			108.00		12.964E-03
			111.00		12.480E-03
			114.00		11.353E-03
			117.00		10.081E-03
			120.00		9.3331E-03
			123.00		8.7627E-03
			126.00		8.1969E-03
		END_DATA
	END_SCAN  11
	BEGIN_SCAN  12
		TASK_NAME=MODE_INTERVAL
		PROGRAM=BeamAdjust 1.2
		MEAS_DATE=07-Oct-2010 14:18:55
		LINAC=A4
		MODALITY=X
		INPLANE_AXIS_DIR=TARGET_GUN
		CROSSPLANE_AXIS_DIR=LEFT_RIGHT
		DEPTH_AXIS_DIR=UP_DOWN
		ENERGY=6.00
		SSD=950.00
		WEDGE=None
		FIELD_INPLANE=100.00
		FIELD_CROSSPLANE=100.00
		FIELD_TYPE=RECTANGULAR
		GANTRY=0.00
		GANTRY_UPRIGHT_POSITION=0
		GANTRY_ROTATION=CW
		COLL_ANGLE=90.00
		COLL_OFFSET_INPLANE=0.00
		COLL_OFFSET_CROSSPLANE=0.00
		SCAN_DEVICE=STARCHECK
		ELECTROMETER=2D_ARRAY_INTERFACE
		DETECTOR=STARCHECK
		SCAN_CURVETYPE=INPLANE_PROFILE
		SCAN_DEPTH=0.00
		SCAN_OFFAXIS_CROSSPLANE=50.00
		SCAN_ANGLE=0.00
		SCAN_DIAGONAL=NOT_DIAGONAL
		MEAS_PRESET=TIME_PRESET
		MEAS_TIME=10.000
		MEAS_UNIT=GY
		PRESSURE=1013.25
		TEMPERATURE=20.00
		NORM_TEMPERATURE=20.00
		CORRECTION_FACTOR=1.0000
		CORRECTIONS=AIR_DENSITY_CORR;
		BEGIN_DATA
			-30.00		326.85E-03
			-15.00		335.84E-03
			15.00		343.93E-03
			30.00		344.93E-03
		END_DATA
	END_SCAN  12
	BEGIN_SCAN  13
		TASK_NAME=MODE_INTERVAL
		PROGRAM=BeamAdjust 1.2
		MEAS_DATE=07-Oct-2010 14:18:55
		LINAC=A4
		MODALITY=X
		INPLANE_AXIS_DIR=TARGET_GUN
		CROSSPLANE_AXIS_DIR=LEFT_RIGHT
		DEPTH_AXIS_DIR=UP_DOWN
		ENERGY=6.00
		SSD=950.00
		WEDGE=None
		FIELD_INPLANE=100.00
		FIELD_CROSSPLANE=100.00
		FIELD_TYPE=RECTANGULAR
		GANTRY=0.00
		GANTRY_UPRIGHT_POSITION=0
		GANTRY_ROTATION=CW
		COLL_ANGLE=90.00
		COLL_OFFSET_INPLANE=0.00
		COLL_OFFSET_CROSSPLANE=0.00
		SCAN_DEVICE=STARCHECK
		ELECTROMETER=2D_ARRAY_INTERFACE
		DETECTOR=STARCHECK
		SCAN_CURVETYPE=INPLANE_PROFILE
		SCAN_DEPTH=0.00
		SCAN_OFFAXIS_CROSSPLANE=100.00
		SCAN_ANGLE=0.00
		SCAN_DIAGONAL=NOT_DIAGONAL
		MEAS_PRESET=TIME_PRESET
		MEAS_TIME=10.000
		MEAS_UNIT=GY
		PRESSURE=1013.25
		TEMPERATURE=20.00
		NORM_TEMPERATURE=20.00
		CORRECTION_FACTOR=1.0000
		CORRECTIONS=AIR_DENSITY_CORR;
		BEGIN_DATA
			-60.00		7.8267E-03
			-30.00		10.741E-03
			30.00		10.506E-03
			60.00		7.4273E-03
		END_DATA
	END_SCAN  13
	BEGIN_SCAN  14
		TASK_NAME=MODE_INTERVAL
		PROGRAM=BeamAdjust 1.2
		MEAS_DATE=07-Oct-2010 14:18:55
		LINAC=A4
		MODALITY=X
		INPLANE_AXIS_DIR=TARGET_GUN
		CROSSPLANE_AXIS_DIR=LEFT_RIGHT
		DEPTH_AXIS_DIR=UP_DOWN
		ENERGY=6.00
		SSD=950.00
		WEDGE=None
		FIELD_INPLANE=100.00
		FIELD_CROSSPLANE=100.00
		FIELD_TYPE=RECTANGULAR
		GANTRY=0.00
		GANTRY_UPRIGHT_POSITION=0
		GANTRY_ROTATION=CW
		COLL_ANGLE=90.00
		COLL_OFFSET_INPLANE=0.00
		COLL_OFFSET_CROSSPLANE=0.00
		SCAN_DEVICE=STARCHECK
		ELECTROMETER=2D_ARRAY_INTERFACE
		DETECTOR=STARCHECK
		SCAN_CURVETYPE=INPLANE_PROFILE
		SCAN_DEPTH=0.00
		SCAN_OFFAXIS_CROSSPLANE=130.00
		SCAN_ANGLE=0.00
		SCAN_DIAGONAL=NOT_DIAGONAL
		MEAS_PRESET=TIME_PRESET
		MEAS_TIME=10.000
		MEAS_UNIT=GY
		PRESSURE=1013.25
		TEMPERATURE=20.00
		NORM_TEMPERATURE=20.00
		CORRECTION_FACTOR=1.0000
		CORRECTIONS=AIR_DENSITY_CORR;
		BEGIN_DATA
			-130.00		2.0257E-03
			-125.00		2.4662E-03
			-120.00		2.1507E-03
			-115.00		3.0442E-03
			-110.00		2.5197E-03
			-105.00		3.0484E-03
			-100.00		3.2839E-03
			-95.00		2.8785E-03
			-90.00		2.4836E-03
			-85.00		3.6648E-03
			-80.00		3.5678E-03
			-75.00		3.5228E-03
			-70.00		3.8984E-03
			-65.00		3.8403E-03
			-60.00		4.5872E-03
			-55.00		4.3783E-03
			-50.00		4.2649E-03
			-45.00		5.3997E-03
			-40.00		5.0590E-03
			-35.00		5.2285E-03
			-30.00		5.0142E-03
			-25.00		5.0352E-03
			-20.00		5.1004E-03
			-15.00		5.3207E-03
			-10.00		4.8509E-03
			-5.00		6.0613E-03
			0.00		6.0537E-03
			5.00		5.6022E-03
			10.00		5.6382E-03
			15.00		5.2250E-03
			20.00		5.2565E-03
			25.00		6.0960E-03
			30.00		4.9702E-03
			35.00		5.4833E-03
			40.00		5.4548E-03
			45.00		4.9545E-03
			50.00		4.7454E-03
			55.00		5.1600E-03
			60.00		4.5382E-03
			65.00		4.1491E-03
			70.00		4.1436E-03
			75.00		4.2063E-03
			80.00		3.9494E-03
			85.00		3.8095E-03
			90.00		3.3914E-03
			95.00		3.9115E-03
			100.00		3.6150E-03
			105.00		2.6765E-03
			110.00		2.6635E-03
			115.00		2.7314E-03
			120.00		2.6371E-03
			125.00		2.2845E-03
			130.00		2.0889E-03
		END_DATA
	END_SCAN  14
	BEGIN_SCAN  15
		TASK_NAME=MODE_INTERVAL
		PROGRAM=BeamAdjust 1.2
		MEAS_DATE=07-Oct-2010 14:18:55
		LINAC=A4
		MODALITY=X
		INPLANE_AXIS_DIR=TARGET_GUN
		CROSSPLANE_AXIS_DIR=LEFT_RIGHT
		DEPTH_AXIS_DIR=UP_DOWN
		ENERGY=6.00
		SSD=950.00
		WEDGE=None
		FIELD_INPLANE=100.00
		FIELD_CROSSPLANE=100.00
		FIELD_TYPE=RECTANGULAR
		GANTRY=0.00
		GANTRY_UPRIGHT_POSITION=0
		GANTRY_ROTATION=CW
		COLL_ANGLE=90.00
		COLL_OFFSET_INPLANE=0.00
		COLL_OFFSET_CROSSPLANE=0.00
		SCAN_DEVICE=STARCHECK
		ELECTROMETER=2D_ARRAY_INTERFACE
		DETECTOR=STARCHECK
		SCAN_CURVETYPE=INPLANE_PROFILE
		SCAN_DEPTH=0.00
		SCAN_OFFAXIS_CROSSPLANE=0.00
		SCAN_ANGLE=0.00
		SCAN_DIAGONAL=FIRST_DIAGONAL
		MEAS_PRESET=TIME_PRESET
		MEAS_TIME=10.000
		MEAS_UNIT=GY
		PRESSURE=1013.25
		TEMPERATURE=20.00
		NORM_TEMPERATURE=20.00
		CORRECTION_FACTOR=1.0000
		CORRECTIONS=AIR_DENSITY_CORR;
		BEGIN_DATA
			-172.40		2.5969E-03
			-169.40		2.9038E-03
			-166.40		3.7138E-03
			-163.40		3.5971E-03
			-160.40		3.9848E-03
			-157.40		4.0796E-03
			-154.40		4.0028E-03
			-151.40		4.6596E-03
			-148.40		4.6799E-03
			-145.40		5.2150E-03
			-142.40		5.9179E-03
			-139.40		6.0067E-03
			-136.40		5.8933E-03
			-133.40		6.6377E-03
			-130.40		7.3208E-03
			-127.40		7.6464E-03
			-124.40		8.2323E-03
			-121.40		9.0264E-03
			-118.40		9.7306E-03
			-115.40		10.597E-03
			-112.40		11.309E-03
			-109.40		13.391E-03
			-106.40		14.082E-03
			-103.40		14.812E-03
			-100.40		15.843E-03
			-97.40		18.037E-03
			-94.40		19.903E-03
			-91.40		22.223E-03
			-88.40		25.332E-03
			-85.40		28.312E-03
			-82.40		32.983E-03
			-79.40		39.480E-03
			-76.40		53.063E-03
			-73.40		95.111E-03
			-70.40		240.44E-03
			-67.40		453.12E-03
			-64.40		569.06E-03
			-61.40		609.35E-03
			-58.40		627.18E-03
			-55.40		637.86E-03
			-52.40		644.15E-03
			-49.40		650.49E-03
			-46.40		652.81E-03
			-43.40		655.03E-03
			-40.40		657.38E-03
			-37.40		662.20E-03
			-34.40		661.89E-03
			-31.40		663.89E-03
			-28.40		662.68E-03
			-25.40		665.59E-03
			-22.40		665.22E-03
			-19.40		665.71E-03
			-16.40		669.61E-03
			-13.40		672.28E-03
			0.00		668.48E-03
			13.40		672.63E-03
			16.40		668.10E-03
			19.40		667.60E-03
			22.40		666.26E-03
			25.40		665.32E-03
			28.40		664.43E-03
			31.40		662.04E-03
			34.40		658.73E-03
			37.40		661.40E-03
			40.40		658.40E-03
			43.40		655.04E-03
			46.40		653.02E-03
			49.40		646.66E-03
			52.40		641.94E-03
			55.40		629.00E-03
			58.40		612.95E-03
			61.40		576.43E-03
			64.40		475.22E-03
			67.40		289.36E-03
			70.40		121.96E-03
			73.40		61.449E-03
			76.40		43.010E-03
			79.40		35.006E-03
			82.40		29.400E-03
			85.40		25.842E-03
			88.40		23.621E-03
			91.40		20.819E-03
			94.40		18.734E-03
			97.40		16.856E-03
			100.40		15.269E-03
			103.40		14.469E-03
			106.40		13.375E-03
			109.40		12.221E-03
			112.40		10.090E-03
			115.40		9.4763E-03
			118.40		8.5707E-03
			121.40		9.0855E-03
			124.40		7.9684E-03
			127.40		7.4023E-03
			130.40		6.8157E-03
			133.40		5.8360E-03
			136.40		5.0255E-03
			139.40		5.0693E-03
			142.40		4.9720E-03
			145.40		4.4072E-03
			148.40		4.2360E-03
			151.40		3.5954E-03
			154.40		3.7691E-03
			157.40		3.5356E-03
			160.40		2.6061E-03
			163.40		3.0130E-03
			166.40		2.5598E-03
			169.40		2.2990E-03
			172.40		2.5638E-03
		END_DATA
	END_SCAN  15
	BEGIN_SCAN  16
		TASK_NAME=MODE_INTERVAL
		PROGRAM=BeamAdjust 1.2
		MEAS_DATE=07-Oct-2010 14:18:55
		LINAC=A4
		MODALITY=X
		INPLANE_AXIS_DIR=GUN_TARGET
		CROSSPLANE_AXIS_DIR=LEFT_RIGHT
		DEPTH_AXIS_DIR=UP_DOWN
		ENERGY=6.00
		SSD=950.00
		WEDGE=None
		FIELD_INPLANE=100.00
		FIELD_CROSSPLANE=100.00
		FIELD_TYPE=RECTANGULAR
		GANTRY=0.00
		GANTRY_UPRIGHT_POSITION=0
		GANTRY_ROTATION=CW
		COLL_ANGLE=90.00
		COLL_OFFSET_INPLANE=0.00
		COLL_OFFSET_CROSSPLANE=0.00
		SCAN_DEVICE=STARCHECK
		ELECTROMETER=2D_ARRAY_INTERFACE
		DETECTOR=STARCHECK
		SCAN_CURVETYPE=INPLANE_PROFILE
		SCAN_DEPTH=0.00
		SCAN_OFFAXIS_CROSSPLANE=0.00
		SCAN_ANGLE=0.00
		SCAN_DIAGONAL=SECOND_DIAGONAL
		MEAS_PRESET=TIME_PRESET
		MEAS_TIME=10.000
		MEAS_UNIT=GY
		PRESSURE=1013.25
		TEMPERATURE=20.00
		NORM_TEMPERATURE=20.00
		CORRECTION_FACTOR=1.0000
		CORRECTIONS=AIR_DENSITY_CORR;
		BEGIN_DATA
			-172.40		2.7611E-03
			-169.40		2.9438E-03
			-166.40		2.6998E-03
			-163.40		2.7342E-03
			-160.40		3.1214E-03
			-157.40		3.6464E-03
			-154.40		4.8337E-03
			-151.40		4.2056E-03
			-148.40		4.1886E-03
			-145.40		4.2284E-03
			-142.40		5.3360E-03
			-139.40		5.8392E-03
			-136.40		5.9882E-03
			-133.40		6.3523E-03
			-130.40		6.6387E-03
			-127.40		7.5415E-03
			-124.40		8.6438E-03
			-121.40		9.1146E-03
			-118.40		9.6015E-03
			-115.40		9.9586E-03
			-112.40		11.290E-03
			-109.40		12.365E-03
			-106.40		13.423E-03
			-103.40		14.237E-03
			-100.40		15.968E-03
			-97.40		17.397E-03
			-94.40		19.132E-03
			-91.40		21.794E-03
			-88.40		23.630E-03
			-85.40		26.565E-03
			-82.40		30.745E-03
			-79.40		37.149E-03
			-76.40		48.466E-03
			-73.40		78.002E-03
			-70.40		188.17E-03
			-67.40		401.17E-03
			-64.40		551.46E-03
			-61.40		606.05E-03
			-58.40		630.00E-03
			-55.40		640.20E-03
			-52.40		650.83E-03
			-49.40		655.02E-03
			-46.40		658.58E-03
			-43.40		661.41E-03
			-40.40		663.10E-03
			-37.40		666.32E-03
			-34.40		665.72E-03
			-31.40		666.86E-03
			-28.40		669.38E-03
			-25.40		667.80E-03
			-22.40		665.73E-03
			-19.40		669.02E-03
			-16.40		671.01E-03
			-13.40		673.70E-03
			0.00		668.48E-03
			13.40		671.73E-03
			16.40		668.46E-03
			19.40		665.06E-03
			22.40		662.67E-03
			25.40		662.57E-03
			28.40		661.22E-03
			31.40		659.83E-03
			34.40		657.03E-03
			37.40		656.30E-03
			40.40		654.52E-03
			43.40		652.05E-03
			46.40		650.18E-03
			49.40		645.69E-03
			52.40		637.13E-03
			55.40		627.90E-03
			58.40		615.01E-03
			61.40		582.40E-03
			64.40		495.95E-03
			67.40		315.55E-03
			70.40		134.51E-03
			73.40		64.271E-03
			76.40		43.943E-03
			79.40		34.838E-03
			82.40		30.367E-03
			85.40		27.079E-03
			88.40		24.108E-03
			91.40		21.663E-03
			94.40		18.991E-03
			97.40		17.269E-03
			100.40		15.212E-03
			103.40		14.172E-03
			106.40		13.510E-03
			109.40		11.800E-03
			112.40		10.727E-03
			115.40		9.8437E-03
			118.40		9.8465E-03
			121.40		8.6392E-03
			124.40		7.8746E-03
			127.40		7.2697E-03
			130.40		7.2188E-03
			133.40		6.3731E-03
			136.40		5.6495E-03
			139.40		6.0883E-03
			142.40		5.6101E-03
			145.40		5.3728E-03
			148.40		4.7779E-03
			151.40		4.0446E-03
			154.40		4.0499E-03
			157.40		3.9224E-03
			160.40		4.2102E-03
			163.40		3.9860E-03
			166.40		3.7350E-03
			169.40		2.8796E-03
			172.40		2.1820E-03
		END_DATA
	END_SCAN  16
END_SCAN_DATA
