BEGIN_SCAN_DATA
	FORMAT=CC-Export V1.9                  
	FILE_CREATION_DATE=07-Oct-2010 14:18:28
	LAST_MODIFIED=07-Oct-2010 14:18:28
	BEGIN_SCAN  1
		TASK_NAME=MODE_INTERVAL
		PROGRAM=BeamAdjust 1.2
		MEAS_DATE=07-Oct-2010 14:18:28
		LINAC=A4
		MODALITY=X
		INPLANE_AXIS_DIR=TARGET_GUN
		CROSSPLANE_AXIS_DIR=LEFT_RIGHT
		DEPTH_AXIS_DIR=UP_DOWN
		ENERGY=6.00
		SSD=950.00
		WEDGE=None
		FIELD_INPLANE=100.00
		FIELD_CROSSPLANE=100.00
		FIELD_TYPE=RECTANGULAR
		GANTRY=0.00
		GANTRY_UPRIGHT_POSITION=0
		GANTRY_ROTATION=CW
		COLL_ANGLE=90.00
		COLL_OFFSET_INPLANE=0.00
		COLL_OFFSET_CROSSPLANE=0.00
		SCAN_DEVICE=STARCHECK
		ELECTROMETER=2D_ARRAY_INTERFACE
		DETECTOR=STARCHECK
		SCAN_CURVETYPE=CROSSPLANE_PROFILE
		SCAN_DEPTH=0.00
		SCAN_OFFAXIS_INPLANE=-130.00
		SCAN_ANGLE=0.00
		SCAN_DIAGONAL=NOT_DIAGONAL
		MEAS_PRESET=TIME_PRESET
		MEAS_TIME=10.000
		MEAS_UNIT=GY
		PRESSURE=1013.25
		TEMPERATURE=20.00
		NORM_TEMPERATURE=20.00
		CORRECTION_FACTOR=1.0000
		CORRECTIONS=AIR_DENSITY_CORR;
		BEGIN_DATA
			-130.00		2.8936E-03
			-80.00		4.2986E-03
			-40.00		7.0150E-03
			40.00		6.8675E-03
			80.00		3.7802E-03
			130.00		1.8432E-03
		END_DATA
	END_SCAN  1
	BEGIN_SCAN  2
		TASK_NAME=MODE_INTERVAL
		PROGRAM=BeamAdjust 1.2
		MEAS_DATE=07-Oct-2010 14:18:28
		LINAC=A4
		MODALITY=X
		INPLANE_AXIS_DIR=TARGET_GUN
		CROSSPLANE_AXIS_DIR=LEFT_RIGHT
		DEPTH_AXIS_DIR=UP_DOWN
		ENERGY=6.00
		SSD=950.00
		WEDGE=None
		FIELD_INPLANE=100.00
		FIELD_CROSSPLANE=100.00
		FIELD_TYPE=RECTANGULAR
		GANTRY=0.00
		GANTRY_UPRIGHT_POSITION=0
		GANTRY_ROTATION=CW
		COLL_ANGLE=90.00
		COLL_OFFSET_INPLANE=0.00
		COLL_OFFSET_CROSSPLANE=0.00
		SCAN_DEVICE=STARCHECK
		ELECTROMETER=2D_ARRAY_INTERFACE
		DETECTOR=STARCHECK
		SCAN_CURVETYPE=CROSSPLANE_PROFILE
		SCAN_DEPTH=0.00
		SCAN_OFFAXIS_INPLANE=-100.00
		SCAN_ANGLE=0.00
		SCAN_DIAGONAL=NOT_DIAGONAL
		MEAS_PRESET=TIME_PRESET
		MEAS_TIME=10.000
		MEAS_UNIT=GY
		PRESSURE=1013.25
		TEMPERATURE=20.00
		NORM_TEMPERATURE=20.00
		CORRECTION_FACTOR=1.0000
		CORRECTIONS=AIR_DENSITY_CORR;
		BEGIN_DATA
			-60.00		10.342E-03
			-30.00		14.776E-03
			30.00		15.209E-03
			60.00		10.074E-03
		END_DATA
	END_SCAN  2
	BEGIN_SCAN  3
		TASK_NAME=MODE_INTERVAL
		PROGRAM=BeamAdjust 1.2
		MEAS_DATE=07-Oct-2010 14:18:28
		LINAC=A4
		MODALITY=X
		INPLANE_AXIS_DIR=TARGET_GUN
		CROSSPLANE_AXIS_DIR=LEFT_RIGHT
		DEPTH_AXIS_DIR=UP_DOWN
		ENERGY=6.00
		SSD=950.00
		WEDGE=None
		FIELD_INPLANE=100.00
		FIELD_CROSSPLANE=100.00
		FIELD_TYPE=RECTANGULAR
		GANTRY=0.00
		GANTRY_UPRIGHT_POSITION=0
		GANTRY_ROTATION=CW
		COLL_ANGLE=90.00
		COLL_OFFSET_INPLANE=0.00
		COLL_OFFSET_CROSSPLANE=0.00
		SCAN_DEVICE=STARCHECK
		ELECTROMETER=2D_ARRAY_INTERFACE
		DETECTOR=STARCHECK
		SCAN_CURVETYPE=CROSSPLANE_PROFILE
		SCAN_DEPTH=0.00
		SCAN_OFFAXIS_INPLANE=-50.00
		SCAN_ANGLE=0.00
		SCAN_DIAGONAL=NOT_DIAGONAL
		MEAS_PRESET=TIME_PRESET
		MEAS_TIME=10.000
		MEAS_UNIT=GY
		PRESSURE=1013.25
		TEMPERATURE=20.00
		NORM_TEMPERATURE=20.00
		CORRECTION_FACTOR=1.0000
		CORRECTIONS=AIR_DENSITY_CORR;
		BEGIN_DATA
			-30.00		441.37E-03
			-15.00		403.16E-03
			15.00		430.00E-03
			30.00		439.20E-03
		END_DATA
	END_SCAN  3
	BEGIN_SCAN  4
		TASK_NAME=MODE_INTERVAL
		PROGRAM=BeamAdjust 1.2
		MEAS_DATE=07-Oct-2010 14:18:28
		LINAC=A4
		MODALITY=X
		INPLANE_AXIS_DIR=TARGET_GUN
		CROSSPLANE_AXIS_DIR=LEFT_RIGHT
		DEPTH_AXIS_DIR=UP_DOWN
		ENERGY=6.00
		SSD=950.00
		WEDGE=None
		FIELD_INPLANE=100.00
		FIELD_CROSSPLANE=100.00
		FIELD_TYPE=RECTANGULAR
		GANTRY=0.00
		GANTRY_UPRIGHT_POSITION=0
		GANTRY_ROTATION=CW
		COLL_ANGLE=90.00
		COLL_OFFSET_INPLANE=0.00
		COLL_OFFSET_CROSSPLANE=0.00
		SCAN_DEVICE=STARCHECK
		ELECTROMETER=2D_ARRAY_INTERFACE
		DETECTOR=STARCHECK
		SCAN_CURVETYPE=CROSSPLANE_PROFILE
		SCAN_DEPTH=0.00
		SCAN_OFFAXIS_INPLANE=0.00
		SCAN_ANGLE=0.00
		SCAN_DIAGONAL=NOT_DIAGONAL
		MEAS_PRESET=TIME_PRESET
		MEAS_TIME=10.000
		MEAS_UNIT=GY
		PRESSURE=1013.25
		TEMPERATURE=20.00
		NORM_TEMPERATURE=20.00
		CORRECTION_FACTOR=1.0000
		CORRECTIONS=AIR_DENSITY_CORR;
		BEGIN_DATA
			-126.00		6.4111E-03
			-123.00		7.2233E-03
			-120.00		7.6266E-03
			-117.00		8.4251E-03
			-114.00		9.0751E-03
			-111.00		10.315E-03
			-108.00		10.757E-03
			-105.00		10.781E-03
			-102.00		11.729E-03
			-99.00		12.533E-03
			-96.00		13.827E-03
			-93.00		15.667E-03
			-90.00		17.001E-03
			-87.00		17.911E-03
			-84.00		20.277E-03
			-81.00		21.819E-03
			-78.00		23.939E-03
			-75.00		27.017E-03
			-72.00		30.126E-03
			-69.00		34.326E-03
			-66.00		39.225E-03
			-63.00		45.345E-03
			-60.00		55.028E-03
			-57.00		72.729E-03
			-54.00		114.22E-03
			-51.00		291.45E-03
			-48.00		555.73E-03
			-45.00		617.23E-03
			-42.00		636.85E-03
			-39.00		649.57E-03
			-36.00		655.40E-03
			-33.00		655.38E-03
			-30.00		657.35E-03
			-27.00		659.65E-03
			-24.00		662.23E-03
			-21.00		662.34E-03
			-18.00		668.28E-03
			-15.00		668.52E-03
			-12.00		667.71E-03
			-9.00		670.20E-03
			-6.00		669.19E-03
			0.00		668.61E-03
			6.00		672.09E-03
			9.00		671.25E-03
			12.00		668.73E-03
			15.00		667.72E-03
			18.00		666.84E-03
			21.00		665.59E-03
			24.00		661.69E-03
			27.00		665.53E-03
			30.00		663.70E-03
			33.00		661.67E-03
			36.00		658.24E-03
			39.00		652.29E-03
			42.00		640.78E-03
			45.00		615.87E-03
			48.00		526.86E-03
			51.00		232.09E-03
			54.00		102.07E-03
			57.00		68.369E-03
			60.00		52.935E-03
			63.00		44.691E-03
			66.00		37.604E-03
			69.00		33.312E-03
			72.00		29.880E-03
			75.00		26.666E-03
			78.00		23.287E-03
			81.00		21.156E-03
			84.00		19.734E-03
			87.00		17.832E-03
			90.00		17.087E-03
			93.00		15.141E-03
			96.00		13.201E-03
			99.00		12.487E-03
			102.00		11.704E-03
			105.00		11.468E-03
			108.00		10.705E-03
			111.00		9.2493E-03
			114.00		8.6805E-03
			117.00		7.8927E-03
			120.00		7.3299E-03
			123.00		7.1754E-03
			126.00		7.0561E-03
		END_DATA
	END_SCAN  4
	BEGIN_SCAN  5
		TASK_NAME=MODE_INTERVAL
		PROGRAM=BeamAdjust 1.2
		MEAS_DATE=07-Oct-2010 14:18:28
		LINAC=A4
		MODALITY=X
		INPLANE_AXIS_DIR=TARGET_GUN
		CROSSPLANE_AXIS_DIR=LEFT_RIGHT
		DEPTH_AXIS_DIR=UP_DOWN
		ENERGY=6.00
		SSD=950.00
		WEDGE=None
		FIELD_INPLANE=100.00
		FIELD_CROSSPLANE=100.00
		FIELD_TYPE=RECTANGULAR
		GANTRY=0.00
		GANTRY_UPRIGHT_POSITION=0
		GANTRY_ROTATION=CW
		COLL_ANGLE=90.00
		COLL_OFFSET_INPLANE=0.00
		COLL_OFFSET_CROSSPLANE=0.00
		SCAN_DEVICE=STARCHECK
		ELECTROMETER=2D_ARRAY_INTERFACE
		DETECTOR=STARCHECK
		SCAN_CURVETYPE=CROSSPLANE_PROFILE
		SCAN_DEPTH=0.00
		SCAN_OFFAXIS_INPLANE=50.00
		SCAN_ANGLE=0.00
		SCAN_DIAGONAL=NOT_DIAGONAL
		MEAS_PRESET=TIME_PRESET
		MEAS_TIME=10.000
		MEAS_UNIT=GY
		PRESSURE=1013.25
		TEMPERATURE=20.00
		NORM_TEMPERATURE=20.00
		CORRECTION_FACTOR=1.0000
		CORRECTIONS=AIR_DENSITY_CORR;
		BEGIN_DATA
			-30.00		228.03E-03
			-15.00		239.16E-03
			15.00		212.15E-03
			30.00		219.29E-03
		END_DATA
	END_SCAN  5
	BEGIN_SCAN  6
		TASK_NAME=MODE_INTERVAL
		PROGRAM=BeamAdjust 1.2
		MEAS_DATE=07-Oct-2010 14:18:28
		LINAC=A4
		MODALITY=X
		INPLANE_AXIS_DIR=TARGET_GUN
		CROSSPLANE_AXIS_DIR=LEFT_RIGHT
		DEPTH_AXIS_DIR=UP_DOWN
		ENERGY=6.00
		SSD=950.00
		WEDGE=None
		FIELD_INPLANE=100.00
		FIELD_CROSSPLANE=100.00
		FIELD_TYPE=RECTANGULAR
		GANTRY=0.00
		GANTRY_UPRIGHT_POSITION=0
		GANTRY_ROTATION=CW
		COLL_ANGLE=90.00
		COLL_OFFSET_INPLANE=0.00
		COLL_OFFSET_CROSSPLANE=0.00
		SCAN_DEVICE=STARCHECK
		ELECTROMETER=2D_ARRAY_INTERFACE
		DETECTOR=STARCHECK
		SCAN_CURVETYPE=CROSSPLANE_PROFILE
		SCAN_DEPTH=0.00
		SCAN_OFFAXIS_INPLANE=100.00
		SCAN_ANGLE=0.00
		SCAN_DIAGONAL=NOT_DIAGONAL
		MEAS_PRESET=TIME_PRESET
		MEAS_TIME=10.000
		MEAS_UNIT=GY
		PRESSURE=1013.25
		TEMPERATURE=20.00
		NORM_TEMPERATURE=20.00
		CORRECTION_FACTOR=1.0000
		CORRECTIONS=AIR_DENSITY_CORR;
		BEGIN_DATA
			-60.00		9.9480E-03
			-30.00		14.616E-03
			30.00		14.879E-03
			60.00		8.9861E-03
		END_DATA
	END_SCAN  6
	BEGIN_SCAN  7
		TASK_NAME=MODE_INTERVAL
		PROGRAM=BeamAdjust 1.2
		MEAS_DATE=07-Oct-2010 14:18:28
		LINAC=A4
		MODALITY=X
		INPLANE_AXIS_DIR=TARGET_GUN
		CROSSPLANE_AXIS_DIR=LEFT_RIGHT
		DEPTH_AXIS_DIR=UP_DOWN
		ENERGY=6.00
		SSD=950.00
		WEDGE=None
		FIELD_INPLANE=100.00
		FIELD_CROSSPLANE=100.00
		FIELD_TYPE=RECTANGULAR
		GANTRY=0.00
		GANTRY_UPRIGHT_POSITION=0
		GANTRY_ROTATION=CW
		COLL_ANGLE=90.00
		COLL_OFFSET_INPLANE=0.00
		COLL_OFFSET_CROSSPLANE=0.00
		SCAN_DEVICE=STARCHECK
		ELECTROMETER=2D_ARRAY_INTERFACE
		DETECTOR=STARCHECK
		SCAN_CURVETYPE=CROSSPLANE_PROFILE
		SCAN_DEPTH=0.00
		SCAN_OFFAXIS_INPLANE=130.00
		SCAN_ANGLE=0.00
		SCAN_DIAGONAL=NOT_DIAGONAL
		MEAS_PRESET=TIME_PRESET
		MEAS_TIME=10.000
		MEAS_UNIT=GY
		PRESSURE=1013.25
		TEMPERATURE=20.00
		NORM_TEMPERATURE=20.00
		CORRECTION_FACTOR=1.0000
		CORRECTIONS=AIR_DENSITY_CORR;
		BEGIN_DATA
			-130.00		1.9203E-03
			-80.00		4.1240E-03
			-40.00		7.4468E-03
			40.00		7.0100E-03
			80.00		4.0150E-03
			130.00		2.1791E-03
		END_DATA
	END_SCAN  7
	BEGIN_SCAN  8
		TASK_NAME=MODE_INTERVAL
		PROGRAM=BeamAdjust 1.2
		MEAS_DATE=07-Oct-2010 14:18:28
		LINAC=A4
		MODALITY=X
		INPLANE_AXIS_DIR=TARGET_GUN
		CROSSPLANE_AXIS_DIR=LEFT_RIGHT
		DEPTH_AXIS_DIR=UP_DOWN
		ENERGY=6.00
		SSD=950.00
		WEDGE=None
		FIELD_INPLANE=100.00
		FIELD_CROSSPLANE=100.00
		FIELD_TYPE=RECTANGULAR
		GANTRY=0.00
		GANTRY_UPRIGHT_POSITION=0
		GANTRY_ROTATION=CW
		COLL_ANGLE=90.00
		COLL_OFFSET_INPLANE=0.00
		COLL_OFFSET_CROSSPLANE=0.00
		SCAN_DEVICE=STARCHECK
		ELECTROMETER=2D_ARRAY_INTERFACE
		DETECTOR=STARCHECK
		SCAN_CURVETYPE=INPLANE_PROFILE
		SCAN_DEPTH=0.00
		SCAN_OFFAXIS_CROSSPLANE=-130.00
		SCAN_ANGLE=0.00
		SCAN_DIAGONAL=NOT_DIAGONAL
		MEAS_PRESET=TIME_PRESET
		MEAS_TIME=10.000
		MEAS_UNIT=GY
		PRESSURE=1013.25
		TEMPERATURE=20.00
		NORM_TEMPERATURE=20.00
		CORRECTION_FACTOR=1.0000
		CORRECTIONS=AIR_DENSITY_CORR;
		BEGIN_DATA
			-130.00		2.8936E-03
			-125.00		2.6105E-03
			-120.00		2.8206E-03
			-115.00		3.2090E-03
			-110.00		3.2528E-03
			-105.00		3.6857E-03
			-100.00		3.9484E-03
			-95.00		4.6887E-03
			-90.00		4.4897E-03
			-85.00		4.2775E-03
			-80.00		4.2030E-03
			-75.00		4.8171E-03
			-70.00		4.9697E-03
			-65.00		5.0346E-03
			-60.00		5.6903E-03
			-55.00		5.8725E-03
			-50.00		4.2241E-03
			-45.00		4.6507E-03
			-40.00		4.8783E-03
			-35.00		5.3730E-03
			-30.00		5.4815E-03
			-25.00		5.0274E-03
			-20.00		5.2543E-03
			-15.00		5.0693E-03
			-10.00		5.4942E-03
			-5.00		6.2886E-03
			0.00		5.8053E-03
			5.00		6.4780E-03
			10.00		5.9337E-03
			15.00		5.5404E-03
			20.00		6.0235E-03
			25.00		4.8707E-03
			30.00		5.2751E-03
			35.00		5.2274E-03
			40.00		5.0033E-03
			45.00		4.7594E-03
			50.00		5.0563E-03
			55.00		4.4780E-03
			60.00		4.4796E-03
			65.00		3.6759E-03
			70.00		3.6581E-03
			75.00		4.0104E-03
			80.00		3.6755E-03
			85.00		3.5906E-03
			90.00		3.3748E-03
			95.00		3.3087E-03
			100.00		2.8159E-03
			105.00		2.1706E-03
			110.00		2.4501E-03
			115.00		2.2579E-03
			120.00		2.6063E-03
			125.00		2.7625E-03
			130.00		1.9203E-03
		END_DATA
	END_SCAN  8
	BEGIN_SCAN  9
		TASK_NAME=MODE_INTERVAL
		PROGRAM=BeamAdjust 1.2
		MEAS_DATE=07-Oct-2010 14:18:28
		LINAC=A4
		MODALITY=X
		INPLANE_AXIS_DIR=TARGET_GUN
		CROSSPLANE_AXIS_DIR=LEFT_RIGHT
		DEPTH_AXIS_DIR=UP_DOWN
		ENERGY=6.00
		SSD=950.00
		WEDGE=None
		FIELD_INPLANE=100.00
		FIELD_CROSSPLANE=100.00
		FIELD_TYPE=RECTANGULAR
		GANTRY=0.00
		GANTRY_UPRIGHT_POSITION=0
		GANTRY_ROTATION=CW
		COLL_ANGLE=90.00
		COLL_OFFSET_INPLANE=0.00
		COLL_OFFSET_CROSSPLANE=0.00
		SCAN_DEVICE=STARCHECK
		ELECTROMETER=2D_ARRAY_INTERFACE
		DETECTOR=STARCHECK
		SCAN_CURVETYPE=INPLANE_PROFILE
		SCAN_DEPTH=0.00
		SCAN_OFFAXIS_CROSSPLANE=-100.00
		SCAN_ANGLE=0.00
		SCAN_DIAGONAL=NOT_DIAGONAL
		MEAS_PRESET=TIME_PRESET
		MEAS_TIME=10.000
		MEAS_UNIT=GY
		PRESSURE=1013.25
		TEMPERATURE=20.00
		NORM_TEMPERATURE=20.00
		CORRECTION_FACTOR=1.0000
		CORRECTIONS=AIR_DENSITY_CORR;
		BEGIN_DATA
			-60.00		8.2336E-03
			-30.00		10.327E-03
			30.00		10.338E-03
			60.00		7.8129E-03
		END_DATA
	END_SCAN  9
	BEGIN_SCAN  10
		TASK_NAME=MODE_INTERVAL
		PROGRAM=BeamAdjust 1.2
		MEAS_DATE=07-Oct-2010 14:18:28
		LINAC=A4
		MODALITY=X
		INPLANE_AXIS_DIR=TARGET_GUN
		CROSSPLANE_AXIS_DIR=LEFT_RIGHT
		DEPTH_AXIS_DIR=UP_DOWN
		ENERGY=6.00
		SSD=950.00
		WEDGE=None
		FIELD_INPLANE=100.00
		FIELD_CROSSPLANE=100.00
		FIELD_TYPE=RECTANGULAR
		GANTRY=0.00
		GANTRY_UPRIGHT_POSITION=0
		GANTRY_ROTATION=CW
		COLL_ANGLE=90.00
		COLL_OFFSET_INPLANE=0.00
		COLL_OFFSET_CROSSPLANE=0.00
		SCAN_DEVICE=STARCHECK
		ELECTROMETER=2D_ARRAY_INTERFACE
		DETECTOR=STARCHECK
		SCAN_CURVETYPE=INPLANE_PROFILE
		SCAN_DEPTH=0.00
		SCAN_OFFAXIS_CROSSPLANE=-50.00
		SCAN_ANGLE=0.00
		SCAN_DIAGONAL=NOT_DIAGONAL
		MEAS_PRESET=TIME_PRESET
		MEAS_TIME=10.000
		MEAS_UNIT=GY
		PRESSURE=1013.25
		TEMPERATURE=20.00
		NORM_TEMPERATURE=20.00
		CORRECTION_FACTOR=1.0000
		CORRECTIONS=AIR_DENSITY_CORR;
		BEGIN_DATA
			-30.00		398.16E-03
			-15.00		394.70E-03
			15.00		384.15E-03
			30.00		372.89E-03
		END_DATA
	END_SCAN  10
	BEGIN_SCAN  11
		TASK_NAME=MODE_INTERVAL
		PROGRAM=BeamAdjust 1.2
		MEAS_DATE=07-Oct-2010 14:18:28
		LINAC=A4
		MODALITY=X
		INPLANE_AXIS_DIR=TARGET_GUN
		CROSSPLANE_AXIS_DIR=LEFT_RIGHT
		DEPTH_AXIS_DIR=UP_DOWN
		ENERGY=6.00
		SSD=950.00
		WEDGE=None
		FIELD_INPLANE=100.00
		FIELD_CROSSPLANE=100.00
		FIELD_TYPE=RECTANGULAR
		GANTRY=0.00
		GANTRY_UPRIGHT_POSITION=0
		GANTRY_ROTATION=CW
		COLL_ANGLE=90.00
		COLL_OFFSET_INPLANE=0.00
		COLL_OFFSET_CROSSPLANE=0.00
		SCAN_DEVICE=STARCHECK
		ELECTROMETER=2D_ARRAY_INTERFACE
		DETECTOR=STARCHECK
		SCAN_CURVETYPE=INPLANE_PROFILE
		SCAN_DEPTH=0.00
		SCAN_OFFAXIS_CROSSPLANE=0.00
		SCAN_ANGLE=0.00
		SCAN_DIAGONAL=NOT_DIAGONAL
		MEAS_PRESET=TIME_PRESET
		MEAS_TIME=10.000
		MEAS_UNIT=GY
		PRESSURE=1013.25
		TEMPERATURE=20.00
		NORM_TEMPERATURE=20.00
		CORRECTION_FACTOR=1.0000
		CORRECTIONS=AIR_DENSITY_CORR;
		BEGIN_DATA
			-126.00		9.3662E-03
			-123.00		9.0932E-03
			-120.00		10.261E-03
			-117.00		11.450E-03
			-114.00		12.030E-03
			-111.00		13.571E-03
			-108.00		13.852E-03
			-105.00		14.857E-03
			-102.00		16.041E-03
			-99.00		16.685E-03
			-96.00		18.790E-03
			-93.00		20.745E-03
			-90.00		22.398E-03
			-87.00		23.722E-03
			-84.00		25.771E-03
			-81.00		28.389E-03
			-78.00		31.210E-03
			-75.00		34.273E-03
			-72.00		37.587E-03
			-69.00		41.956E-03
			-66.00		46.681E-03
			-63.00		53.689E-03
			-60.00		65.115E-03
			-57.00		88.965E-03
			-54.00		153.80E-03
			-51.00		363.01E-03
			-48.00		581.36E-03
			-45.00		629.63E-03
			-42.00		646.24E-03
			-39.00		654.39E-03
			-36.00		659.41E-03
			-33.00		662.52E-03
			-30.00		666.06E-03
			-27.00		667.54E-03
			-24.00		665.99E-03
			-21.00		665.20E-03
			-18.00		672.02E-03
			-15.00		670.45E-03
			-12.00		671.20E-03
			-9.00		671.26E-03
			-6.00		668.29E-03
			0.00		668.61E-03
			6.00		672.95E-03
			9.00		672.04E-03
			12.00		670.76E-03
			15.00		668.56E-03
			18.00		664.39E-03
			21.00		664.29E-03
			24.00		661.36E-03
			27.00		662.12E-03
			30.00		657.77E-03
			33.00		655.38E-03
			36.00		652.33E-03
			39.00		640.53E-03
			42.00		626.22E-03
			45.00		582.38E-03
			48.00		376.82E-03
			51.00		161.28E-03
			54.00		89.726E-03
			57.00		66.074E-03
			60.00		54.616E-03
			63.00		47.061E-03
			66.00		42.529E-03
			69.00		37.451E-03
			72.00		33.901E-03
			75.00		30.640E-03
			78.00		27.381E-03
			81.00		25.442E-03
			84.00		23.568E-03
			87.00		21.700E-03
			90.00		20.316E-03
			93.00		18.475E-03
			96.00		17.265E-03
			99.00		15.518E-03
			102.00		14.402E-03
			105.00		13.450E-03
			108.00		13.269E-03
			111.00		11.773E-03
			114.00		11.130E-03
			117.00		10.283E-03
			120.00		9.7130E-03
			123.00		8.8164E-03
			126.00		8.0365E-03
		END_DATA
	END_SCAN  11
	BEGIN_SCAN  12
		TASK_NAME=MODE_INTERVAL
		PROGRAM=BeamAdjust 1.2
		MEAS_DATE=07-Oct-2010 14:18:28
		LINAC=A4
		MODALITY=X
		INPLANE_AXIS_DIR=TARGET_GUN
		CROSSPLANE_AXIS_DIR=LEFT_RIGHT
		DEPTH_AXIS_DIR=UP_DOWN
		ENERGY=6.00
		SSD=950.00
		WEDGE=None
		FIELD_INPLANE=100.00
		FIELD_CROSSPLANE=100.00
		FIELD_TYPE=RECTANGULAR
		GANTRY=0.00
		GANTRY_UPRIGHT_POSITION=0
		GANTRY_ROTATION=CW
		COLL_ANGLE=90.00
		COLL_OFFSET_INPLANE=0.00
		COLL_OFFSET_CROSSPLANE=0.00
		SCAN_DEVICE=STARCHECK
		ELECTROMETER=2D_ARRAY_INTERFACE
		DETECTOR=STARCHECK
		SCAN_CURVETYPE=INPLANE_PROFILE
		SCAN_DEPTH=0.00
		SCAN_OFFAXIS_CROSSPLANE=50.00
		SCAN_ANGLE=0.00
		SCAN_DIAGONAL=NOT_DIAGONAL
		MEAS_PRESET=TIME_PRESET
		MEAS_TIME=10.000
		MEAS_UNIT=GY
		PRESSURE=1013.25
		TEMPERATURE=20.00
		NORM_TEMPERATURE=20.00
		CORRECTION_FACTOR=1.0000
		CORRECTIONS=AIR_DENSITY_CORR;
		BEGIN_DATA
			-30.00		326.88E-03
			-15.00		336.09E-03
			15.00		343.50E-03
			30.00		344.58E-03
		END_DATA
	END_SCAN  12
	BEGIN_SCAN  13
		TASK_NAME=MODE_INTERVAL
		PROGRAM=BeamAdjust 1.2
		MEAS_DATE=07-Oct-2010 14:18:28
		LINAC=A4
		MODALITY=X
		INPLANE_AXIS_DIR=TARGET_GUN
		CROSSPLANE_AXIS_DIR=LEFT_RIGHT
		DEPTH_AXIS_DIR=UP_DOWN
		ENERGY=6.00
		SSD=950.00
		WEDGE=None
		FIELD_INPLANE=100.00
		FIELD_CROSSPLANE=100.00
		FIELD_TYPE=RECTANGULAR
		GANTRY=0.00
		GANTRY_UPRIGHT_POSITION=0
		GANTRY_ROTATION=CW
		COLL_ANGLE=90.00
		COLL_OFFSET_INPLANE=0.00
		COLL_OFFSET_CROSSPLANE=0.00
		SCAN_DEVICE=STARCHECK
		ELECTROMETER=2D_ARRAY_INTERFACE
		DETECTOR=STARCHECK
		SCAN_CURVETYPE=INPLANE_PROFILE
		SCAN_DEPTH=0.00
		SCAN_OFFAXIS_CROSSPLANE=100.00
		SCAN_ANGLE=0.00
		SCAN_DIAGONAL=NOT_DIAGONAL
		MEAS_PRESET=TIME_PRESET
		MEAS_TIME=10.000
		MEAS_UNIT=GY
		PRESSURE=1013.25
		TEMPERATURE=20.00
		NORM_TEMPERATURE=20.00
		CORRECTION_FACTOR=1.0000
		CORRECTIONS=AIR_DENSITY_CORR;
		BEGIN_DATA
			-60.00		8.3725E-03
			-30.00		10.281E-03
			30.00		10.305E-03
			60.00		7.3218E-03
		END_DATA
	END_SCAN  13
	BEGIN_SCAN  14
		TASK_NAME=MODE_INTERVAL
		PROGRAM=BeamAdjust 1.2
		MEAS_DATE=07-Oct-2010 14:18:28
		LINAC=A4
		MODALITY=X
		INPLANE_AXIS_DIR=TARGET_GUN
		CROSSPLANE_AXIS_DIR=LEFT_RIGHT
		DEPTH_AXIS_DIR=UP_DOWN
		ENERGY=6.00
		SSD=950.00
		WEDGE=None
		FIELD_INPLANE=100.00
		FIELD_CROSSPLANE=100.00
		FIELD_TYPE=RECTANGULAR
		GANTRY=0.00
		GANTRY_UPRIGHT_POSITION=0
		GANTRY_ROTATION=CW
		COLL_ANGLE=90.00
		COLL_OFFSET_INPLANE=0.00
		COLL_OFFSET_CROSSPLANE=0.00
		SCAN_DEVICE=STARCHECK
		ELECTROMETER=2D_ARRAY_INTERFACE
		DETECTOR=STARCHECK
		SCAN_CURVETYPE=INPLANE_PROFILE
		SCAN_DEPTH=0.00
		SCAN_OFFAXIS_CROSSPLANE=130.00
		SCAN_ANGLE=0.00
		SCAN_DIAGONAL=NOT_DIAGONAL
		MEAS_PRESET=TIME_PRESET
		MEAS_TIME=10.000
		MEAS_UNIT=GY
		PRESSURE=1013.25
		TEMPERATURE=20.00
		NORM_TEMPERATURE=20.00
		CORRECTION_FACTOR=1.0000
		CORRECTIONS=AIR_DENSITY_CORR;
		BEGIN_DATA
			-130.00		1.8432E-03
			-125.00		2.4840E-03
			-120.00		2.8258E-03
			-115.00		2.6782E-03
			-110.00		2.6717E-03
			-105.00		2.7878E-03
			-100.00		2.9986E-03
			-95.00		2.7686E-03
			-90.00		2.7502E-03
			-85.00		4.1291E-03
			-80.00		3.4542E-03
			-75.00		3.5686E-03
			-70.00		3.7141E-03
			-65.00		3.7326E-03
			-60.00		4.6741E-03
			-55.00		4.4594E-03
			-50.00		5.0564E-03
			-45.00		4.9732E-03
			-40.00		4.8861E-03
			-35.00		4.8232E-03
			-30.00		5.2132E-03
			-25.00		4.8867E-03
			-20.00		5.6545E-03
			-15.00		5.6263E-03
			-10.00		4.8819E-03
			-5.00		5.8422E-03
			0.00		5.8333E-03
			5.00		5.3881E-03
			10.00		5.8063E-03
			15.00		5.5905E-03
			20.00		6.1297E-03
			25.00		5.3768E-03
			30.00		4.9286E-03
			35.00		5.0939E-03
			40.00		5.4812E-03
			45.00		5.2439E-03
			50.00		4.7440E-03
			55.00		4.9862E-03
			60.00		4.6754E-03
			65.00		3.8537E-03
			70.00		4.2158E-03
			75.00		4.4591E-03
			80.00		4.0303E-03
			85.00		3.7024E-03
			90.00		3.6169E-03
			95.00		3.1144E-03
			100.00		3.5838E-03
			105.00		2.8261E-03
			110.00		2.6043E-03
			115.00		2.7535E-03
			120.00		2.6858E-03
			125.00		2.2653E-03
			130.00		2.1791E-03
		END_DATA
	END_SCAN  14
	BEGIN_SCAN  15
		TASK_NAME=MODE_INTERVAL
		PROGRAM=BeamAdjust 1.2
		MEAS_DATE=07-Oct-2010 14:18:28
		LINAC=A4
		MODALITY=X
		INPLANE_AXIS_DIR=TARGET_GUN
		CROSSPLANE_AXIS_DIR=LEFT_RIGHT
		DEPTH_AXIS_DIR=UP_DOWN
		ENERGY=6.00
		SSD=950.00
		WEDGE=None
		FIELD_INPLANE=100.00
		FIELD_CROSSPLANE=100.00
		FIELD_TYPE=RECTANGULAR
		GANTRY=0.00
		GANTRY_UPRIGHT_POSITION=0
		GANTRY_ROTATION=CW
		COLL_ANGLE=90.00
		COLL_OFFSET_INPLANE=0.00
		COLL_OFFSET_CROSSPLANE=0.00
		SCAN_DEVICE=STARCHECK
		ELECTROMETER=2D_ARRAY_INTERFACE
		DETECTOR=STARCHECK
		SCAN_CURVETYPE=INPLANE_PROFILE
		SCAN_DEPTH=0.00
		SCAN_OFFAXIS_CROSSPLANE=0.00
		SCAN_ANGLE=0.00
		SCAN_DIAGONAL=FIRST_DIAGONAL
		MEAS_PRESET=TIME_PRESET
		MEAS_TIME=10.000
		MEAS_UNIT=GY
		PRESSURE=1013.25
		TEMPERATURE=20.00
		NORM_TEMPERATURE=20.00
		CORRECTION_FACTOR=1.0000
		CORRECTIONS=AIR_DENSITY_CORR;
		BEGIN_DATA
			-172.40		2.6857E-03
			-169.40		2.8544E-03
			-166.40		3.6749E-03
			-163.40		3.5508E-03
			-160.40		4.0355E-03
			-157.40		4.1556E-03
			-154.40		4.7504E-03
			-151.40		4.1383E-03
			-148.40		4.8602E-03
			-145.40		5.1673E-03
			-142.40		5.6181E-03
			-139.40		5.8875E-03
			-136.40		6.1897E-03
			-133.40		6.9912E-03
			-130.40		7.4442E-03
			-127.40		7.8570E-03
			-124.40		8.0292E-03
			-121.40		8.9849E-03
			-118.40		9.9998E-03
			-115.40		10.845E-03
			-112.40		12.038E-03
			-109.40		12.734E-03
			-106.40		13.938E-03
			-103.40		14.438E-03
			-100.40		16.131E-03
			-97.40		18.229E-03
			-94.40		20.269E-03
			-91.40		22.660E-03
			-88.40		25.585E-03
			-85.40		28.518E-03
			-82.40		33.130E-03
			-79.40		40.023E-03
			-76.40		54.490E-03
			-73.40		100.53E-03
			-70.40		255.11E-03
			-67.40		464.39E-03
			-64.40		573.01E-03
			-61.40		610.83E-03
			-58.40		628.31E-03
			-55.40		639.07E-03
			-52.40		645.44E-03
			-49.40		650.09E-03
			-46.40		652.64E-03
			-43.40		655.03E-03
			-40.40		657.85E-03
			-37.40		662.70E-03
			-34.40		662.15E-03
			-31.40		663.92E-03
			-28.40		662.48E-03
			-25.40		665.15E-03
			-22.40		665.52E-03
			-19.40		666.48E-03
			-16.40		670.20E-03
			-13.40		672.26E-03
			0.00		668.61E-03
			13.40		672.30E-03
			16.40		667.75E-03
			19.40		667.54E-03
			22.40		666.84E-03
			25.40		665.63E-03
			28.40		664.61E-03
			31.40		662.02E-03
			34.40		659.22E-03
			37.40		660.98E-03
			40.40		658.37E-03
			43.40		654.93E-03
			46.40		652.99E-03
			49.40		646.64E-03
			52.40		641.70E-03
			55.40		628.25E-03
			58.40		610.82E-03
			61.40		570.54E-03
			64.40		460.73E-03
			67.40		273.14E-03
			70.40		114.39E-03
			73.40		59.525E-03
			76.40		42.727E-03
			79.40		34.349E-03
			82.40		29.127E-03
			85.40		25.689E-03
			88.40		23.429E-03
			91.40		20.647E-03
			94.40		18.691E-03
			97.40		16.877E-03
			100.40		15.121E-03
			103.40		14.340E-03
			106.40		12.963E-03
			109.40		12.044E-03
			112.40		10.269E-03
			115.40		9.8332E-03
			118.40		9.1901E-03
			121.40		8.0726E-03
			124.40		7.6360E-03
			127.40		7.4941E-03
			130.40		7.3383E-03
			133.40		5.9811E-03
			136.40		5.0255E-03
			139.40		4.8581E-03
			142.40		4.5848E-03
			145.40		4.5677E-03
			148.40		4.4284E-03
			151.40		3.5671E-03
			154.40		3.7110E-03
			157.40		3.4747E-03
			160.40		3.2395E-03
			163.40		2.4607E-03
			166.40		2.5836E-03
			169.40		2.2632E-03
			172.40		2.7474E-03
		END_DATA
	END_SCAN  15
	BEGIN_SCAN  16
		TASK_NAME=MODE_INTERVAL
		PROGRAM=BeamAdjust 1.2
		MEAS_DATE=07-Oct-2010 14:18:28
		LINAC=A4
		MODALITY=X
		INPLANE_AXIS_DIR=GUN_TARGET
		CROSSPLANE_AXIS_DIR=LEFT_RIGHT
		DEPTH_AXIS_DIR=UP_DOWN
		ENERGY=6.00
		SSD=950.00
		WEDGE=None
		FIELD_INPLANE=100.00
		FIELD_CROSSPLANE=100.00
		FIELD_TYPE=RECTANGULAR
		GANTRY=0.00
		GANTRY_UPRIGHT_POSITION=0
		GANTRY_ROTATION=CW
		COLL_ANGLE=90.00
		COLL_OFFSET_INPLANE=0.00
		COLL_OFFSET_CROSSPLANE=0.00
		SCAN_DEVICE=STARCHECK
		ELECTROMETER=2D_ARRAY_INTERFACE
		DETECTOR=STARCHECK
		SCAN_CURVETYPE=INPLANE_PROFILE
		SCAN_DEPTH=0.00
		SCAN_OFFAXIS_CROSSPLANE=0.00
		SCAN_ANGLE=0.00
		SCAN_DIAGONAL=SECOND_DIAGONAL
		MEAS_PRESET=TIME_PRESET
		MEAS_TIME=10.000
		MEAS_UNIT=GY
		PRESSURE=1013.25
		TEMPERATURE=20.00
		NORM_TEMPERATURE=20.00
		CORRECTION_FACTOR=1.0000
		CORRECTIONS=AIR_DENSITY_CORR;
		BEGIN_DATA
			-172.40		2.6094E-03
			-169.40		3.0402E-03
			-166.40		3.0262E-03
			-163.40		3.1590E-03
			-160.40		3.1883E-03
			-157.40		3.4831E-03
			-154.40		3.7424E-03
			-151.40		4.7009E-03
			-148.40		4.6363E-03
			-145.40		4.7753E-03
			-142.40		5.2325E-03
			-139.40		5.2517E-03
			-136.40		5.5761E-03
			-133.40		6.6542E-03
			-130.40		7.1205E-03
			-127.40		7.7352E-03
			-124.40		8.4606E-03
			-121.40		8.6729E-03
			-118.40		9.4874E-03
			-115.40		10.177E-03
			-112.40		11.042E-03
			-109.40		12.940E-03
			-106.40		13.463E-03
			-103.40		14.356E-03
			-100.40		16.047E-03
			-97.40		17.662E-03
			-94.40		19.235E-03
			-91.40		21.948E-03
			-88.40		23.780E-03
			-85.40		26.864E-03
			-82.40		31.109E-03
			-79.40		37.680E-03
			-76.40		49.475E-03
			-73.40		81.305E-03
			-70.40		198.95E-03
			-67.40		412.60E-03
			-64.40		555.51E-03
			-61.40		607.83E-03
			-58.40		631.39E-03
			-55.40		640.86E-03
			-52.40		651.57E-03
			-49.40		655.82E-03
			-46.40		658.77E-03
			-43.40		661.59E-03
			-40.40		663.24E-03
			-37.40		666.36E-03
			-34.40		665.88E-03
			-31.40		666.89E-03
			-28.40		669.07E-03
			-25.40		668.07E-03
			-22.40		666.10E-03
			-19.40		669.33E-03
			-16.40		670.82E-03
			-13.40		673.39E-03
			0.00		668.61E-03
			13.40		671.73E-03
			16.40		668.55E-03
			19.40		665.48E-03
			22.40		662.55E-03
			25.40		662.51E-03
			28.40		661.06E-03
			31.40		659.40E-03
			34.40		656.70E-03
			37.40		656.14E-03
			40.40		654.49E-03
			43.40		651.93E-03
			46.40		649.86E-03
			49.40		645.46E-03
			52.40		636.88E-03
			55.40		627.20E-03
			58.40		613.23E-03
			61.40		577.71E-03
			64.40		483.04E-03
			67.40		298.99E-03
			70.40		126.09E-03
			73.40		62.136E-03
			76.40		42.959E-03
			79.40		34.838E-03
			82.40		30.282E-03
			85.40		26.604E-03
			88.40		23.577E-03
			91.40		21.463E-03
			94.40		19.276E-03
			97.40		17.683E-03
			100.40		15.101E-03
			103.40		13.665E-03
			106.40		12.817E-03
			109.40		11.806E-03
			112.40		11.148E-03
			115.40		10.167E-03
			118.40		9.1667E-03
			121.40		8.7212E-03
			124.40		7.5396E-03
			127.40		7.1097E-03
			130.40		7.4726E-03
			133.40		6.4104E-03
			136.40		5.5704E-03
			139.40		5.8354E-03
			142.40		5.3994E-03
			145.40		5.4884E-03
			148.40		4.7163E-03
			151.40		4.1840E-03
			154.40		4.1160E-03
			157.40		3.4567E-03
			160.40		3.3390E-03
			163.40		4.4501E-03
			166.40		3.6942E-03
			169.40		2.9127E-03
			172.40		2.5441E-03
		END_DATA
	END_SCAN  16
END_SCAN_DATA
