BEGIN_SCAN_DATA
	FORMAT=CC-Export V1.9                  
	FILE_CREATION_DATE=07-Oct-2010 14:17:57
	LAST_MODIFIED=07-Oct-2010 14:17:57
	BEGIN_SCAN  1
		TASK_NAME=MODE_INTERVAL
		PROGRAM=BeamAdjust 1.2
		MEAS_DATE=07-Oct-2010 14:17:57
		LINAC=A4
		MODALITY=X
		INPLANE_AXIS_DIR=TARGET_GUN
		CROSSPLANE_AXIS_DIR=LEFT_RIGHT
		DEPTH_AXIS_DIR=UP_DOWN
		ENERGY=6.00
		SSD=950.00
		WEDGE=None
		FIELD_INPLANE=100.00
		FIELD_CROSSPLANE=100.00
		FIELD_TYPE=RECTANGULAR
		GANTRY=0.00
		GANTRY_UPRIGHT_POSITION=0
		GANTRY_ROTATION=CW
		COLL_ANGLE=90.00
		COLL_OFFSET_INPLANE=0.00
		COLL_OFFSET_CROSSPLANE=0.00
		SCAN_DEVICE=STARCHECK
		ELECTROMETER=2D_ARRAY_INTERFACE
		DETECTOR=STARCHECK
		SCAN_CURVETYPE=CROSSPLANE_PROFILE
		SCAN_DEPTH=0.00
		SCAN_OFFAXIS_INPLANE=-130.00
		SCAN_ANGLE=0.00
		SCAN_DIAGONAL=NOT_DIAGONAL
		MEAS_PRESET=TIME_PRESET
		MEAS_TIME=10.000
		MEAS_UNIT=GY
		PRESSURE=1013.25
		TEMPERATURE=20.00
		NORM_TEMPERATURE=20.00
		CORRECTION_FACTOR=1.0000
		CORRECTIONS=AIR_DENSITY_CORR;
		BEGIN_DATA
			-130.00		2.7674E-03
			-80.00		4.2060E-03
			-40.00		7.2743E-03
			40.00		6.8885E-03
			80.00		3.8279E-03
			130.00		1.9449E-03
		END_DATA
	END_SCAN  1
	BEGIN_SCAN  2
		TASK_NAME=MODE_INTERVAL
		PROGRAM=BeamAdjust 1.2
		MEAS_DATE=07-Oct-2010 14:17:57
		LINAC=A4
		MODALITY=X
		INPLANE_AXIS_DIR=TARGET_GUN
		CROSSPLANE_AXIS_DIR=LEFT_RIGHT
		DEPTH_AXIS_DIR=UP_DOWN
		ENERGY=6.00
		SSD=950.00
		WEDGE=None
		FIELD_INPLANE=100.00
		FIELD_CROSSPLANE=100.00
		FIELD_TYPE=RECTANGULAR
		GANTRY=0.00
		GANTRY_UPRIGHT_POSITION=0
		GANTRY_ROTATION=CW
		COLL_ANGLE=90.00
		COLL_OFFSET_INPLANE=0.00
		COLL_OFFSET_CROSSPLANE=0.00
		SCAN_DEVICE=STARCHECK
		ELECTROMETER=2D_ARRAY_INTERFACE
		DETECTOR=STARCHECK
		SCAN_CURVETYPE=CROSSPLANE_PROFILE
		SCAN_DEPTH=0.00
		SCAN_OFFAXIS_INPLANE=-100.00
		SCAN_ANGLE=0.00
		SCAN_DIAGONAL=NOT_DIAGONAL
		MEAS_PRESET=TIME_PRESET
		MEAS_TIME=10.000
		MEAS_UNIT=GY
		PRESSURE=1013.25
		TEMPERATURE=20.00
		NORM_TEMPERATURE=20.00
		CORRECTION_FACTOR=1.0000
		CORRECTIONS=AIR_DENSITY_CORR;
		BEGIN_DATA
			-60.00		10.611E-03
			-30.00		14.873E-03
			30.00		15.219E-03
			60.00		10.111E-03
		END_DATA
	END_SCAN  2
	BEGIN_SCAN  3
		TASK_NAME=MODE_INTERVAL
		PROGRAM=BeamAdjust 1.2
		MEAS_DATE=07-Oct-2010 14:17:57
		LINAC=A4
		MODALITY=X
		INPLANE_AXIS_DIR=TARGET_GUN
		CROSSPLANE_AXIS_DIR=LEFT_RIGHT
		DEPTH_AXIS_DIR=UP_DOWN
		ENERGY=6.00
		SSD=950.00
		WEDGE=None
		FIELD_INPLANE=100.00
		FIELD_CROSSPLANE=100.00
		FIELD_TYPE=RECTANGULAR
		GANTRY=0.00
		GANTRY_UPRIGHT_POSITION=0
		GANTRY_ROTATION=CW
		COLL_ANGLE=90.00
		COLL_OFFSET_INPLANE=0.00
		COLL_OFFSET_CROSSPLANE=0.00
		SCAN_DEVICE=STARCHECK
		ELECTROMETER=2D_ARRAY_INTERFACE
		DETECTOR=STARCHECK
		SCAN_CURVETYPE=CROSSPLANE_PROFILE
		SCAN_DEPTH=0.00
		SCAN_OFFAXIS_INPLANE=-50.00
		SCAN_ANGLE=0.00
		SCAN_DIAGONAL=NOT_DIAGONAL
		MEAS_PRESET=TIME_PRESET
		MEAS_TIME=10.000
		MEAS_UNIT=GY
		PRESSURE=1013.25
		TEMPERATURE=20.00
		NORM_TEMPERATURE=20.00
		CORRECTION_FACTOR=1.0000
		CORRECTIONS=AIR_DENSITY_CORR;
		BEGIN_DATA
			-30.00		464.74E-03
			-15.00		427.66E-03
			15.00		453.51E-03
			30.00		461.93E-03
		END_DATA
	END_SCAN  3
	BEGIN_SCAN  4
		TASK_NAME=MODE_INTERVAL
		PROGRAM=BeamAdjust 1.2
		MEAS_DATE=07-Oct-2010 14:17:57
		LINAC=A4
		MODALITY=X
		INPLANE_AXIS_DIR=TARGET_GUN
		CROSSPLANE_AXIS_DIR=LEFT_RIGHT
		DEPTH_AXIS_DIR=UP_DOWN
		ENERGY=6.00
		SSD=950.00
		WEDGE=None
		FIELD_INPLANE=100.00
		FIELD_CROSSPLANE=100.00
		FIELD_TYPE=RECTANGULAR
		GANTRY=0.00
		GANTRY_UPRIGHT_POSITION=0
		GANTRY_ROTATION=CW
		COLL_ANGLE=90.00
		COLL_OFFSET_INPLANE=0.00
		COLL_OFFSET_CROSSPLANE=0.00
		SCAN_DEVICE=STARCHECK
		ELECTROMETER=2D_ARRAY_INTERFACE
		DETECTOR=STARCHECK
		SCAN_CURVETYPE=CROSSPLANE_PROFILE
		SCAN_DEPTH=0.00
		SCAN_OFFAXIS_INPLANE=0.00
		SCAN_ANGLE=0.00
		SCAN_DIAGONAL=NOT_DIAGONAL
		MEAS_PRESET=TIME_PRESET
		MEAS_TIME=10.000
		MEAS_UNIT=GY
		PRESSURE=1013.25
		TEMPERATURE=20.00
		NORM_TEMPERATURE=20.00
		CORRECTION_FACTOR=1.0000
		CORRECTIONS=AIR_DENSITY_CORR;
		BEGIN_DATA
			-126.00		6.4185E-03
			-123.00		7.4159E-03
			-120.00		8.0458E-03
			-117.00		8.7349E-03
			-114.00		9.1772E-03
			-111.00		9.4254E-03
			-108.00		10.426E-03
			-105.00		10.970E-03
			-102.00		11.873E-03
			-99.00		12.760E-03
			-96.00		14.007E-03
			-93.00		15.262E-03
			-90.00		16.655E-03
			-87.00		18.062E-03
			-84.00		20.510E-03
			-81.00		21.952E-03
			-78.00		24.010E-03
			-75.00		27.112E-03
			-72.00		29.905E-03
			-69.00		33.956E-03
			-66.00		39.331E-03
			-63.00		45.217E-03
			-60.00		55.161E-03
			-57.00		72.697E-03
			-54.00		114.56E-03
			-51.00		290.90E-03
			-48.00		554.99E-03
			-45.00		616.82E-03
			-42.00		636.20E-03
			-39.00		649.30E-03
			-36.00		655.50E-03
			-33.00		656.18E-03
			-30.00		657.23E-03
			-27.00		659.81E-03
			-24.00		662.17E-03
			-21.00		661.84E-03
			-18.00		667.52E-03
			-15.00		668.50E-03
			-12.00		668.04E-03
			-9.00		670.62E-03
			-6.00		669.47E-03
			0.00		668.67E-03
			6.00		671.71E-03
			9.00		670.91E-03
			12.00		668.45E-03
			15.00		667.39E-03
			18.00		667.24E-03
			21.00		665.03E-03
			24.00		661.55E-03
			27.00		665.66E-03
			30.00		663.99E-03
			33.00		661.58E-03
			36.00		657.86E-03
			39.00		651.69E-03
			42.00		640.28E-03
			45.00		615.70E-03
			48.00		526.40E-03
			51.00		232.79E-03
			54.00		102.03E-03
			57.00		68.280E-03
			60.00		53.706E-03
			63.00		44.308E-03
			66.00		37.656E-03
			69.00		32.978E-03
			72.00		29.522E-03
			75.00		26.694E-03
			78.00		23.882E-03
			81.00		21.777E-03
			84.00		19.527E-03
			87.00		17.383E-03
			90.00		16.416E-03
			93.00		15.005E-03
			96.00		13.438E-03
			99.00		13.076E-03
			102.00		12.566E-03
			105.00		11.073E-03
			108.00		10.445E-03
			111.00		8.7710E-03
			114.00		8.4016E-03
			117.00		7.9962E-03
			120.00		7.4811E-03
			123.00		7.3236E-03
			126.00		7.0339E-03
		END_DATA
	END_SCAN  4
	BEGIN_SCAN  5
		TASK_NAME=MODE_INTERVAL
		PROGRAM=BeamAdjust 1.2
		MEAS_DATE=07-Oct-2010 14:17:57
		LINAC=A4
		MODALITY=X
		INPLANE_AXIS_DIR=TARGET_GUN
		CROSSPLANE_AXIS_DIR=LEFT_RIGHT
		DEPTH_AXIS_DIR=UP_DOWN
		ENERGY=6.00
		SSD=950.00
		WEDGE=None
		FIELD_INPLANE=100.00
		FIELD_CROSSPLANE=100.00
		FIELD_TYPE=RECTANGULAR
		GANTRY=0.00
		GANTRY_UPRIGHT_POSITION=0
		GANTRY_ROTATION=CW
		COLL_ANGLE=90.00
		COLL_OFFSET_INPLANE=0.00
		COLL_OFFSET_CROSSPLANE=0.00
		SCAN_DEVICE=STARCHECK
		ELECTROMETER=2D_ARRAY_INTERFACE
		DETECTOR=STARCHECK
		SCAN_CURVETYPE=CROSSPLANE_PROFILE
		SCAN_DEPTH=0.00
		SCAN_OFFAXIS_INPLANE=50.00
		SCAN_ANGLE=0.00
		SCAN_DIAGONAL=NOT_DIAGONAL
		MEAS_PRESET=TIME_PRESET
		MEAS_TIME=10.000
		MEAS_UNIT=GY
		PRESSURE=1013.25
		TEMPERATURE=20.00
		NORM_TEMPERATURE=20.00
		CORRECTION_FACTOR=1.0000
		CORRECTIONS=AIR_DENSITY_CORR;
		BEGIN_DATA
			-30.00		207.99E-03
			-15.00		217.78E-03
			15.00		193.19E-03
			30.00		199.83E-03
		END_DATA
	END_SCAN  5
	BEGIN_SCAN  6
		TASK_NAME=MODE_INTERVAL
		PROGRAM=BeamAdjust 1.2
		MEAS_DATE=07-Oct-2010 14:17:57
		LINAC=A4
		MODALITY=X
		INPLANE_AXIS_DIR=TARGET_GUN
		CROSSPLANE_AXIS_DIR=LEFT_RIGHT
		DEPTH_AXIS_DIR=UP_DOWN
		ENERGY=6.00
		SSD=950.00
		WEDGE=None
		FIELD_INPLANE=100.00
		FIELD_CROSSPLANE=100.00
		FIELD_TYPE=RECTANGULAR
		GANTRY=0.00
		GANTRY_UPRIGHT_POSITION=0
		GANTRY_ROTATION=CW
		COLL_ANGLE=90.00
		COLL_OFFSET_INPLANE=0.00
		COLL_OFFSET_CROSSPLANE=0.00
		SCAN_DEVICE=STARCHECK
		ELECTROMETER=2D_ARRAY_INTERFACE
		DETECTOR=STARCHECK
		SCAN_CURVETYPE=CROSSPLANE_PROFILE
		SCAN_DEPTH=0.00
		SCAN_OFFAXIS_INPLANE=100.00
		SCAN_ANGLE=0.00
		SCAN_DIAGONAL=NOT_DIAGONAL
		MEAS_PRESET=TIME_PRESET
		MEAS_TIME=10.000
		MEAS_UNIT=GY
		PRESSURE=1013.25
		TEMPERATURE=20.00
		NORM_TEMPERATURE=20.00
		CORRECTION_FACTOR=1.0000
		CORRECTIONS=AIR_DENSITY_CORR;
		BEGIN_DATA
			-60.00		9.8556E-03
			-30.00		14.492E-03
			30.00		14.826E-03
			60.00		9.0127E-03
		END_DATA
	END_SCAN  6
	BEGIN_SCAN  7
		TASK_NAME=MODE_INTERVAL
		PROGRAM=BeamAdjust 1.2
		MEAS_DATE=07-Oct-2010 14:17:57
		LINAC=A4
		MODALITY=X
		INPLANE_AXIS_DIR=TARGET_GUN
		CROSSPLANE_AXIS_DIR=LEFT_RIGHT
		DEPTH_AXIS_DIR=UP_DOWN
		ENERGY=6.00
		SSD=950.00
		WEDGE=None
		FIELD_INPLANE=100.00
		FIELD_CROSSPLANE=100.00
		FIELD_TYPE=RECTANGULAR
		GANTRY=0.00
		GANTRY_UPRIGHT_POSITION=0
		GANTRY_ROTATION=CW
		COLL_ANGLE=90.00
		COLL_OFFSET_INPLANE=0.00
		COLL_OFFSET_CROSSPLANE=0.00
		SCAN_DEVICE=STARCHECK
		ELECTROMETER=2D_ARRAY_INTERFACE
		DETECTOR=STARCHECK
		SCAN_CURVETYPE=CROSSPLANE_PROFILE
		SCAN_DEPTH=0.00
		SCAN_OFFAXIS_INPLANE=130.00
		SCAN_ANGLE=0.00
		SCAN_DIAGONAL=NOT_DIAGONAL
		MEAS_PRESET=TIME_PRESET
		MEAS_TIME=10.000
		MEAS_UNIT=GY
		PRESSURE=1013.25
		TEMPERATURE=20.00
		NORM_TEMPERATURE=20.00
		CORRECTION_FACTOR=1.0000
		CORRECTIONS=AIR_DENSITY_CORR;
		BEGIN_DATA
			-130.00		2.2107E-03
			-80.00		4.0050E-03
			-40.00		7.8853E-03
			40.00		7.1627E-03
			80.00		4.4122E-03
			130.00		2.4600E-03
		END_DATA
	END_SCAN  7
	BEGIN_SCAN  8
		TASK_NAME=MODE_INTERVAL
		PROGRAM=BeamAdjust 1.2
		MEAS_DATE=07-Oct-2010 14:17:57
		LINAC=A4
		MODALITY=X
		INPLANE_AXIS_DIR=TARGET_GUN
		CROSSPLANE_AXIS_DIR=LEFT_RIGHT
		DEPTH_AXIS_DIR=UP_DOWN
		ENERGY=6.00
		SSD=950.00
		WEDGE=None
		FIELD_INPLANE=100.00
		FIELD_CROSSPLANE=100.00
		FIELD_TYPE=RECTANGULAR
		GANTRY=0.00
		GANTRY_UPRIGHT_POSITION=0
		GANTRY_ROTATION=CW
		COLL_ANGLE=90.00
		COLL_OFFSET_INPLANE=0.00
		COLL_OFFSET_CROSSPLANE=0.00
		SCAN_DEVICE=STARCHECK
		ELECTROMETER=2D_ARRAY_INTERFACE
		DETECTOR=STARCHECK
		SCAN_CURVETYPE=INPLANE_PROFILE
		SCAN_DEPTH=0.00
		SCAN_OFFAXIS_CROSSPLANE=-130.00
		SCAN_ANGLE=0.00
		SCAN_DIAGONAL=NOT_DIAGONAL
		MEAS_PRESET=TIME_PRESET
		MEAS_TIME=10.000
		MEAS_UNIT=GY
		PRESSURE=1013.25
		TEMPERATURE=20.00
		NORM_TEMPERATURE=20.00
		CORRECTION_FACTOR=1.0000
		CORRECTIONS=AIR_DENSITY_CORR;
		BEGIN_DATA
			-130.00		2.7674E-03
			-125.00		2.8469E-03
			-120.00		2.9288E-03
			-115.00		3.2001E-03
			-110.00		3.1450E-03
			-105.00		3.3314E-03
			-100.00		3.9097E-03
			-95.00		4.5268E-03
			-90.00		4.8050E-03
			-85.00		4.4770E-03
			-80.00		4.4522E-03
			-75.00		4.8643E-03
			-70.00		4.8511E-03
			-65.00		5.3408E-03
			-60.00		5.0011E-03
			-55.00		5.9467E-03
			-50.00		4.3560E-03
			-45.00		4.7056E-03
			-40.00		5.0260E-03
			-35.00		5.5298E-03
			-30.00		5.4443E-03
			-25.00		5.0541E-03
			-20.00		5.1418E-03
			-15.00		4.8255E-03
			-10.00		5.1873E-03
			-5.00		6.2191E-03
			0.00		5.9937E-03
			5.00		6.6700E-03
			10.00		5.6552E-03
			15.00		5.7333E-03
			20.00		5.8666E-03
			25.00		5.1744E-03
			30.00		5.4348E-03
			35.00		5.3213E-03
			40.00		4.8133E-03
			45.00		4.6239E-03
			50.00		4.7915E-03
			55.00		4.4349E-03
			60.00		4.5331E-03
			65.00		4.1215E-03
			70.00		4.1766E-03
			75.00		3.9970E-03
			80.00		3.3517E-03
			85.00		3.2876E-03
			90.00		3.2114E-03
			95.00		3.6184E-03
			100.00		3.4567E-03
			105.00		2.1721E-03
			110.00		2.2533E-03
			115.00		1.7706E-03
			120.00		2.1246E-03
			125.00		2.6436E-03
			130.00		2.2107E-03
		END_DATA
	END_SCAN  8
	BEGIN_SCAN  9
		TASK_NAME=MODE_INTERVAL
		PROGRAM=BeamAdjust 1.2
		MEAS_DATE=07-Oct-2010 14:17:57
		LINAC=A4
		MODALITY=X
		INPLANE_AXIS_DIR=TARGET_GUN
		CROSSPLANE_AXIS_DIR=LEFT_RIGHT
		DEPTH_AXIS_DIR=UP_DOWN
		ENERGY=6.00
		SSD=950.00
		WEDGE=None
		FIELD_INPLANE=100.00
		FIELD_CROSSPLANE=100.00
		FIELD_TYPE=RECTANGULAR
		GANTRY=0.00
		GANTRY_UPRIGHT_POSITION=0
		GANTRY_ROTATION=CW
		COLL_ANGLE=90.00
		COLL_OFFSET_INPLANE=0.00
		COLL_OFFSET_CROSSPLANE=0.00
		SCAN_DEVICE=STARCHECK
		ELECTROMETER=2D_ARRAY_INTERFACE
		DETECTOR=STARCHECK
		SCAN_CURVETYPE=INPLANE_PROFILE
		SCAN_DEPTH=0.00
		SCAN_OFFAXIS_CROSSPLANE=-100.00
		SCAN_ANGLE=0.00
		SCAN_DIAGONAL=NOT_DIAGONAL
		MEAS_PRESET=TIME_PRESET
		MEAS_TIME=10.000
		MEAS_UNIT=GY
		PRESSURE=1013.25
		TEMPERATURE=20.00
		NORM_TEMPERATURE=20.00
		CORRECTION_FACTOR=1.0000
		CORRECTIONS=AIR_DENSITY_CORR;
		BEGIN_DATA
			-60.00		8.5668E-03
			-30.00		10.641E-03
			30.00		9.9191E-03
			60.00		7.6120E-03
		END_DATA
	END_SCAN  9
	BEGIN_SCAN  10
		TASK_NAME=MODE_INTERVAL
		PROGRAM=BeamAdjust 1.2
		MEAS_DATE=07-Oct-2010 14:17:57
		LINAC=A4
		MODALITY=X
		INPLANE_AXIS_DIR=TARGET_GUN
		CROSSPLANE_AXIS_DIR=LEFT_RIGHT
		DEPTH_AXIS_DIR=UP_DOWN
		ENERGY=6.00
		SSD=950.00
		WEDGE=None
		FIELD_INPLANE=100.00
		FIELD_CROSSPLANE=100.00
		FIELD_TYPE=RECTANGULAR
		GANTRY=0.00
		GANTRY_UPRIGHT_POSITION=0
		GANTRY_ROTATION=CW
		COLL_ANGLE=90.00
		COLL_OFFSET_INPLANE=0.00
		COLL_OFFSET_CROSSPLANE=0.00
		SCAN_DEVICE=STARCHECK
		ELECTROMETER=2D_ARRAY_INTERFACE
		DETECTOR=STARCHECK
		SCAN_CURVETYPE=INPLANE_PROFILE
		SCAN_DEPTH=0.00
		SCAN_OFFAXIS_CROSSPLANE=-50.00
		SCAN_ANGLE=0.00
		SCAN_DIAGONAL=NOT_DIAGONAL
		MEAS_PRESET=TIME_PRESET
		MEAS_TIME=10.000
		MEAS_UNIT=GY
		PRESSURE=1013.25
		TEMPERATURE=20.00
		NORM_TEMPERATURE=20.00
		CORRECTION_FACTOR=1.0000
		CORRECTIONS=AIR_DENSITY_CORR;
		BEGIN_DATA
			-30.00		397.49E-03
			-15.00		394.05E-03
			15.00		383.71E-03
			30.00		372.24E-03
		END_DATA
	END_SCAN  10
	BEGIN_SCAN  11
		TASK_NAME=MODE_INTERVAL
		PROGRAM=BeamAdjust 1.2
		MEAS_DATE=07-Oct-2010 14:17:57
		LINAC=A4
		MODALITY=X
		INPLANE_AXIS_DIR=TARGET_GUN
		CROSSPLANE_AXIS_DIR=LEFT_RIGHT
		DEPTH_AXIS_DIR=UP_DOWN
		ENERGY=6.00
		SSD=950.00
		WEDGE=None
		FIELD_INPLANE=100.00
		FIELD_CROSSPLANE=100.00
		FIELD_TYPE=RECTANGULAR
		GANTRY=0.00
		GANTRY_UPRIGHT_POSITION=0
		GANTRY_ROTATION=CW
		COLL_ANGLE=90.00
		COLL_OFFSET_INPLANE=0.00
		COLL_OFFSET_CROSSPLANE=0.00
		SCAN_DEVICE=STARCHECK
		ELECTROMETER=2D_ARRAY_INTERFACE
		DETECTOR=STARCHECK
		SCAN_CURVETYPE=INPLANE_PROFILE
		SCAN_DEPTH=0.00
		SCAN_OFFAXIS_CROSSPLANE=0.00
		SCAN_ANGLE=0.00
		SCAN_DIAGONAL=NOT_DIAGONAL
		MEAS_PRESET=TIME_PRESET
		MEAS_TIME=10.000
		MEAS_UNIT=GY
		PRESSURE=1013.25
		TEMPERATURE=20.00
		NORM_TEMPERATURE=20.00
		CORRECTION_FACTOR=1.0000
		CORRECTIONS=AIR_DENSITY_CORR;
		BEGIN_DATA
			-126.00		9.3258E-03
			-123.00		9.2430E-03
			-120.00		10.589E-03
			-117.00		11.546E-03
			-114.00		12.473E-03
			-111.00		12.901E-03
			-108.00		13.828E-03
			-105.00		14.925E-03
			-102.00		16.432E-03
			-99.00		17.104E-03
			-96.00		18.788E-03
			-93.00		21.095E-03
			-90.00		22.467E-03
			-87.00		23.992E-03
			-84.00		26.121E-03
			-81.00		28.548E-03
			-78.00		31.263E-03
			-75.00		34.266E-03
			-72.00		38.215E-03
			-69.00		42.089E-03
			-66.00		47.805E-03
			-63.00		54.964E-03
			-60.00		66.730E-03
			-57.00		92.201E-03
			-54.00		165.10E-03
			-51.00		392.04E-03
			-48.00		590.30E-03
			-45.00		632.42E-03
			-42.00		647.46E-03
			-39.00		654.78E-03
			-36.00		659.50E-03
			-33.00		662.33E-03
			-30.00		666.77E-03
			-27.00		666.93E-03
			-24.00		666.14E-03
			-21.00		665.18E-03
			-18.00		672.22E-03
			-15.00		670.52E-03
			-12.00		671.17E-03
			-9.00		670.92E-03
			-6.00		668.16E-03
			0.00		668.67E-03
			6.00		672.87E-03
			9.00		671.93E-03
			12.00		670.66E-03
			15.00		668.20E-03
			18.00		664.42E-03
			21.00		664.75E-03
			24.00		660.85E-03
			27.00		662.06E-03
			30.00		657.26E-03
			33.00		654.67E-03
			36.00		651.66E-03
			39.00		639.45E-03
			42.00		623.55E-03
			45.00		573.12E-03
			48.00		348.24E-03
			51.00		150.35E-03
			54.00		86.269E-03
			57.00		64.572E-03
			60.00		53.767E-03
			63.00		46.934E-03
			66.00		41.445E-03
			69.00		36.973E-03
			72.00		33.594E-03
			75.00		30.317E-03
			78.00		27.149E-03
			81.00		25.162E-03
			84.00		23.365E-03
			87.00		21.542E-03
			90.00		20.090E-03
			93.00		18.379E-03
			96.00		17.181E-03
			99.00		15.750E-03
			102.00		14.231E-03
			105.00		13.398E-03
			108.00		12.675E-03
			111.00		11.794E-03
			114.00		11.187E-03
			117.00		10.068E-03
			120.00		9.6113E-03
			123.00		9.0241E-03
			126.00		8.1084E-03
		END_DATA
	END_SCAN  11
	BEGIN_SCAN  12
		TASK_NAME=MODE_INTERVAL
		PROGRAM=BeamAdjust 1.2
		MEAS_DATE=07-Oct-2010 14:17:57
		LINAC=A4
		MODALITY=X
		INPLANE_AXIS_DIR=TARGET_GUN
		CROSSPLANE_AXIS_DIR=LEFT_RIGHT
		DEPTH_AXIS_DIR=UP_DOWN
		ENERGY=6.00
		SSD=950.00
		WEDGE=None
		FIELD_INPLANE=100.00
		FIELD_CROSSPLANE=100.00
		FIELD_TYPE=RECTANGULAR
		GANTRY=0.00
		GANTRY_UPRIGHT_POSITION=0
		GANTRY_ROTATION=CW
		COLL_ANGLE=90.00
		COLL_OFFSET_INPLANE=0.00
		COLL_OFFSET_CROSSPLANE=0.00
		SCAN_DEVICE=STARCHECK
		ELECTROMETER=2D_ARRAY_INTERFACE
		DETECTOR=STARCHECK
		SCAN_CURVETYPE=INPLANE_PROFILE
		SCAN_DEPTH=0.00
		SCAN_OFFAXIS_CROSSPLANE=50.00
		SCAN_ANGLE=0.00
		SCAN_DIAGONAL=NOT_DIAGONAL
		MEAS_PRESET=TIME_PRESET
		MEAS_TIME=10.000
		MEAS_UNIT=GY
		PRESSURE=1013.25
		TEMPERATURE=20.00
		NORM_TEMPERATURE=20.00
		CORRECTION_FACTOR=1.0000
		CORRECTIONS=AIR_DENSITY_CORR;
		BEGIN_DATA
			-30.00		327.27E-03
			-15.00		336.26E-03
			15.00		343.59E-03
			30.00		344.36E-03
		END_DATA
	END_SCAN  12
	BEGIN_SCAN  13
		TASK_NAME=MODE_INTERVAL
		PROGRAM=BeamAdjust 1.2
		MEAS_DATE=07-Oct-2010 14:17:57
		LINAC=A4
		MODALITY=X
		INPLANE_AXIS_DIR=TARGET_GUN
		CROSSPLANE_AXIS_DIR=LEFT_RIGHT
		DEPTH_AXIS_DIR=UP_DOWN
		ENERGY=6.00
		SSD=950.00
		WEDGE=None
		FIELD_INPLANE=100.00
		FIELD_CROSSPLANE=100.00
		FIELD_TYPE=RECTANGULAR
		GANTRY=0.00
		GANTRY_UPRIGHT_POSITION=0
		GANTRY_ROTATION=CW
		COLL_ANGLE=90.00
		COLL_OFFSET_INPLANE=0.00
		COLL_OFFSET_CROSSPLANE=0.00
		SCAN_DEVICE=STARCHECK
		ELECTROMETER=2D_ARRAY_INTERFACE
		DETECTOR=STARCHECK
		SCAN_CURVETYPE=INPLANE_PROFILE
		SCAN_DEPTH=0.00
		SCAN_OFFAXIS_CROSSPLANE=100.00
		SCAN_ANGLE=0.00
		SCAN_DIAGONAL=NOT_DIAGONAL
		MEAS_PRESET=TIME_PRESET
		MEAS_TIME=10.000
		MEAS_UNIT=GY
		PRESSURE=1013.25
		TEMPERATURE=20.00
		NORM_TEMPERATURE=20.00
		CORRECTION_FACTOR=1.0000
		CORRECTIONS=AIR_DENSITY_CORR;
		BEGIN_DATA
			-60.00		7.7717E-03
			-30.00		10.101E-03
			30.00		10.166E-03
			60.00		7.4764E-03
		END_DATA
	END_SCAN  13
	BEGIN_SCAN  14
		TASK_NAME=MODE_INTERVAL
		PROGRAM=BeamAdjust 1.2
		MEAS_DATE=07-Oct-2010 14:17:57
		LINAC=A4
		MODALITY=X
		INPLANE_AXIS_DIR=TARGET_GUN
		CROSSPLANE_AXIS_DIR=LEFT_RIGHT
		DEPTH_AXIS_DIR=UP_DOWN
		ENERGY=6.00
		SSD=950.00
		WEDGE=None
		FIELD_INPLANE=100.00
		FIELD_CROSSPLANE=100.00
		FIELD_TYPE=RECTANGULAR
		GANTRY=0.00
		GANTRY_UPRIGHT_POSITION=0
		GANTRY_ROTATION=CW
		COLL_ANGLE=90.00
		COLL_OFFSET_INPLANE=0.00
		COLL_OFFSET_CROSSPLANE=0.00
		SCAN_DEVICE=STARCHECK
		ELECTROMETER=2D_ARRAY_INTERFACE
		DETECTOR=STARCHECK
		SCAN_CURVETYPE=INPLANE_PROFILE
		SCAN_DEPTH=0.00
		SCAN_OFFAXIS_CROSSPLANE=130.00
		SCAN_ANGLE=0.00
		SCAN_DIAGONAL=NOT_DIAGONAL
		MEAS_PRESET=TIME_PRESET
		MEAS_TIME=10.000
		MEAS_UNIT=GY
		PRESSURE=1013.25
		TEMPERATURE=20.00
		NORM_TEMPERATURE=20.00
		CORRECTION_FACTOR=1.0000
		CORRECTIONS=AIR_DENSITY_CORR;
		BEGIN_DATA
			-130.00		1.9449E-03
			-125.00		2.9974E-03
			-120.00		2.1965E-03
			-115.00		2.5952E-03
			-110.00		2.5406E-03
			-105.00		2.6895E-03
			-100.00		3.0788E-03
			-95.00		3.1028E-03
			-90.00		2.7798E-03
			-85.00		3.9463E-03
			-80.00		3.7167E-03
			-75.00		3.7267E-03
			-70.00		3.8571E-03
			-65.00		3.7163E-03
			-60.00		4.5327E-03
			-55.00		5.0159E-03
			-50.00		4.4022E-03
			-45.00		4.9570E-03
			-40.00		5.1048E-03
			-35.00		5.2270E-03
			-30.00		5.1390E-03
			-25.00		4.9595E-03
			-20.00		5.3354E-03
			-15.00		5.1686E-03
			-10.00		4.8701E-03
			-5.00		5.9540E-03
			0.00		6.2360E-03
			5.00		5.6213E-03
			10.00		5.6367E-03
			15.00		5.8381E-03
			20.00		5.3172E-03
			25.00		5.4005E-03
			30.00		4.9093E-03
			35.00		5.0969E-03
			40.00		5.5577E-03
			45.00		5.0785E-03
			50.00		4.8959E-03
			55.00		5.2587E-03
			60.00		4.5692E-03
			65.00		3.8713E-03
			70.00		3.8418E-03
			75.00		4.0829E-03
			80.00		4.1259E-03
			85.00		4.4730E-03
			90.00		3.6684E-03
			95.00		3.2658E-03
			100.00		3.5125E-03
			105.00		2.4781E-03
			110.00		2.5748E-03
			115.00		2.5649E-03
			120.00		2.8067E-03
			125.00		2.3376E-03
			130.00		2.4600E-03
		END_DATA
	END_SCAN  14
	BEGIN_SCAN  15
		TASK_NAME=MODE_INTERVAL
		PROGRAM=BeamAdjust 1.2
		MEAS_DATE=07-Oct-2010 14:17:57
		LINAC=A4
		MODALITY=X
		INPLANE_AXIS_DIR=TARGET_GUN
		CROSSPLANE_AXIS_DIR=LEFT_RIGHT
		DEPTH_AXIS_DIR=UP_DOWN
		ENERGY=6.00
		SSD=950.00
		WEDGE=None
		FIELD_INPLANE=100.00
		FIELD_CROSSPLANE=100.00
		FIELD_TYPE=RECTANGULAR
		GANTRY=0.00
		GANTRY_UPRIGHT_POSITION=0
		GANTRY_ROTATION=CW
		COLL_ANGLE=90.00
		COLL_OFFSET_INPLANE=0.00
		COLL_OFFSET_CROSSPLANE=0.00
		SCAN_DEVICE=STARCHECK
		ELECTROMETER=2D_ARRAY_INTERFACE
		DETECTOR=STARCHECK
		SCAN_CURVETYPE=INPLANE_PROFILE
		SCAN_DEPTH=0.00
		SCAN_OFFAXIS_CROSSPLANE=0.00
		SCAN_ANGLE=0.00
		SCAN_DIAGONAL=FIRST_DIAGONAL
		MEAS_PRESET=TIME_PRESET
		MEAS_TIME=10.000
		MEAS_UNIT=GY
		PRESSURE=1013.25
		TEMPERATURE=20.00
		NORM_TEMPERATURE=20.00
		CORRECTION_FACTOR=1.0000
		CORRECTIONS=AIR_DENSITY_CORR;
		BEGIN_DATA
			-172.40		2.7715E-03
			-169.40		2.9712E-03
			-166.40		3.5222E-03
			-163.40		3.5718E-03
			-160.40		3.8699E-03
			-157.40		4.6846E-03
			-154.40		4.2600E-03
			-151.40		4.1858E-03
			-148.40		4.7559E-03
			-145.40		5.1539E-03
			-142.40		5.4297E-03
			-139.40		6.0410E-03
			-136.40		6.2061E-03
			-133.40		7.0817E-03
			-130.40		7.5869E-03
			-127.40		7.8556E-03
			-124.40		8.2116E-03
			-121.40		9.0190E-03
			-118.40		9.7499E-03
			-115.40		11.282E-03
			-112.40		11.563E-03
			-109.40		13.141E-03
			-106.40		14.158E-03
			-103.40		14.799E-03
			-100.40		15.937E-03
			-97.40		18.166E-03
			-94.40		20.023E-03
			-91.40		22.589E-03
			-88.40		25.677E-03
			-85.40		28.960E-03
			-82.40		33.921E-03
			-79.40		41.084E-03
			-76.40		56.231E-03
			-73.40		106.53E-03
			-70.40		268.34E-03
			-67.40		473.29E-03
			-64.40		576.03E-03
			-61.40		612.12E-03
			-58.40		629.27E-03
			-55.40		639.64E-03
			-52.40		645.55E-03
			-49.40		650.21E-03
			-46.40		652.47E-03
			-43.40		655.20E-03
			-40.40		658.02E-03
			-37.40		662.86E-03
			-34.40		662.33E-03
			-31.40		664.13E-03
			-28.40		662.62E-03
			-25.40		665.11E-03
			-22.40		665.28E-03
			-19.40		666.35E-03
			-16.40		669.80E-03
			-13.40		672.48E-03
			0.00		668.67E-03
			13.40		672.33E-03
			16.40		667.99E-03
			19.40		667.74E-03
			22.40		666.39E-03
			25.40		665.13E-03
			28.40		664.34E-03
			31.40		661.98E-03
			34.40		658.54E-03
			37.40		660.89E-03
			40.40		658.05E-03
			43.40		654.75E-03
			46.40		652.07E-03
			49.40		645.94E-03
			52.40		640.63E-03
			55.40		626.67E-03
			58.40		607.94E-03
			61.40		563.24E-03
			64.40		444.64E-03
			67.40		256.39E-03
			70.40		107.02E-03
			73.40		57.878E-03
			76.40		41.383E-03
			79.40		34.021E-03
			82.40		29.120E-03
			85.40		25.388E-03
			88.40		23.042E-03
			91.40		20.256E-03
			94.40		18.713E-03
			97.40		16.985E-03
			100.40		15.359E-03
			103.40		14.207E-03
			106.40		12.812E-03
			109.40		11.449E-03
			112.40		9.8403E-03
			115.40		10.220E-03
			118.40		9.0290E-03
			121.40		8.5196E-03
			124.40		8.0515E-03
			127.40		7.2631E-03
			130.40		6.8897E-03
			133.40		5.4864E-03
			136.40		4.7561E-03
			139.40		4.7931E-03
			142.40		4.7488E-03
			145.40		4.8813E-03
			148.40		4.8589E-03
			151.40		3.6401E-03
			154.40		3.3621E-03
			157.40		3.2980E-03
			160.40		1.9297E-03
			163.40		2.4637E-03
			166.40		2.9703E-03
			169.40		2.9139E-03
			172.40		3.0907E-03
		END_DATA
	END_SCAN  15
	BEGIN_SCAN  16
		TASK_NAME=MODE_INTERVAL
		PROGRAM=BeamAdjust 1.2
		MEAS_DATE=07-Oct-2010 14:17:57
		LINAC=A4
		MODALITY=X
		INPLANE_AXIS_DIR=GUN_TARGET
		CROSSPLANE_AXIS_DIR=LEFT_RIGHT
		DEPTH_AXIS_DIR=UP_DOWN
		ENERGY=6.00
		SSD=950.00
		WEDGE=None
		FIELD_INPLANE=100.00
		FIELD_CROSSPLANE=100.00
		FIELD_TYPE=RECTANGULAR
		GANTRY=0.00
		GANTRY_UPRIGHT_POSITION=0
		GANTRY_ROTATION=CW
		COLL_ANGLE=90.00
		COLL_OFFSET_INPLANE=0.00
		COLL_OFFSET_CROSSPLANE=0.00
		SCAN_DEVICE=STARCHECK
		ELECTROMETER=2D_ARRAY_INTERFACE
		DETECTOR=STARCHECK
		SCAN_CURVETYPE=INPLANE_PROFILE
		SCAN_DEPTH=0.00
		SCAN_OFFAXIS_CROSSPLANE=0.00
		SCAN_ANGLE=0.00
		SCAN_DIAGONAL=SECOND_DIAGONAL
		MEAS_PRESET=TIME_PRESET
		MEAS_TIME=10.000
		MEAS_UNIT=GY
		PRESSURE=1013.25
		TEMPERATURE=20.00
		NORM_TEMPERATURE=20.00
		CORRECTION_FACTOR=1.0000
		CORRECTIONS=AIR_DENSITY_CORR;
		BEGIN_DATA
			-172.40		2.4414E-03
			-169.40		3.1380E-03
			-166.40		2.7416E-03
			-163.40		3.0491E-03
			-160.40		3.2775E-03
			-157.40		3.5454E-03
			-154.40		3.9707E-03
			-151.40		4.2308E-03
			-148.40		5.1762E-03
			-145.40		4.6627E-03
			-142.40		5.0078E-03
			-139.40		5.2413E-03
			-136.40		5.6087E-03
			-133.40		6.7311E-03
			-130.40		7.1190E-03
			-127.40		7.9615E-03
			-124.40		8.4547E-03
			-121.40		8.8662E-03
			-118.40		9.4148E-03
			-115.40		10.034E-03
			-112.40		10.923E-03
			-109.40		12.430E-03
			-106.40		14.314E-03
			-103.40		14.753E-03
			-100.40		16.254E-03
			-97.40		17.540E-03
			-94.40		19.175E-03
			-91.40		21.758E-03
			-88.40		24.012E-03
			-85.40		27.398E-03
			-82.40		31.670E-03
			-79.40		38.027E-03
			-76.40		50.329E-03
			-73.40		84.647E-03
			-70.40		210.51E-03
			-67.40		422.61E-03
			-64.40		559.48E-03
			-61.40		609.11E-03
			-58.40		631.57E-03
			-55.40		640.88E-03
			-52.40		651.49E-03
			-49.40		655.64E-03
			-46.40		658.98E-03
			-43.40		661.69E-03
			-40.40		663.40E-03
			-37.40		666.59E-03
			-34.40		665.97E-03
			-31.40		666.65E-03
			-28.40		668.85E-03
			-25.40		667.70E-03
			-22.40		666.10E-03
			-19.40		669.31E-03
			-16.40		671.03E-03
			-13.40		673.76E-03
			0.00		668.67E-03
			13.40		671.26E-03
			16.40		668.16E-03
			19.40		664.90E-03
			22.40		662.47E-03
			25.40		662.40E-03
			28.40		661.36E-03
			31.40		659.64E-03
			34.40		656.56E-03
			37.40		655.90E-03
			40.40		654.27E-03
			43.40		651.87E-03
			46.40		649.27E-03
			49.40		644.58E-03
			52.40		635.61E-03
			55.40		625.85E-03
			58.40		611.17E-03
			61.40		571.97E-03
			64.40		468.43E-03
			67.40		281.11E-03
			70.40		117.45E-03
			73.40		59.803E-03
			76.40		41.988E-03
			79.40		34.360E-03
			82.40		30.465E-03
			85.40		26.464E-03
			88.40		23.363E-03
			91.40		21.163E-03
			94.40		18.979E-03
			97.40		17.385E-03
			100.40		14.935E-03
			103.40		13.914E-03
			106.40		13.087E-03
			109.40		11.833E-03
			112.40		10.809E-03
			115.40		9.8662E-03
			118.40		8.9706E-03
			121.40		8.3562E-03
			124.40		8.2456E-03
			127.40		7.2817E-03
			130.40		7.1322E-03
			133.40		6.3507E-03
			136.40		5.5973E-03
			139.40		5.8280E-03
			142.40		5.3397E-03
			145.40		5.3353E-03
			148.40		4.7328E-03
			151.40		4.1330E-03
			154.40		4.2016E-03
			157.40		3.9524E-03
			160.40		3.5978E-03
			163.40		3.5745E-03
			166.40		3.7108E-03
			169.40		2.6988E-03
			172.40		2.2997E-03
		END_DATA
	END_SCAN  16
END_SCAN_DATA
