BEGIN_SCAN_DATA
	FORMAT=CC-Export V1.9                  
	FILE_CREATION_DATE=07-Oct-2010 14:17:27
	LAST_MODIFIED=07-Oct-2010 14:17:27
	BEGIN_SCAN  1
		TASK_NAME=MODE_INTERVAL
		PROGRAM=BeamAdjust 1.2
		MEAS_DATE=07-Oct-2010 14:17:27
		LINAC=A4
		MODALITY=X
		INPLANE_AXIS_DIR=TARGET_GUN
		CROSSPLANE_AXIS_DIR=LEFT_RIGHT
		DEPTH_AXIS_DIR=UP_DOWN
		ENERGY=6.00
		SSD=950.00
		WEDGE=None
		FIELD_INPLANE=100.00
		FIELD_CROSSPLANE=100.00
		FIELD_TYPE=RECTANGULAR
		GANTRY=0.00
		GANTRY_UPRIGHT_POSITION=0
		GANTRY_ROTATION=CW
		COLL_ANGLE=90.00
		COLL_OFFSET_INPLANE=0.00
		COLL_OFFSET_CROSSPLANE=0.00
		SCAN_DEVICE=STARCHECK
		ELECTROMETER=2D_ARRAY_INTERFACE
		DETECTOR=STARCHECK
		SCAN_CURVETYPE=CROSSPLANE_PROFILE
		SCAN_DEPTH=0.00
		SCAN_OFFAXIS_INPLANE=-130.00
		SCAN_ANGLE=0.00
		SCAN_DIAGONAL=NOT_DIAGONAL
		MEAS_PRESET=TIME_PRESET
		MEAS_TIME=10.000
		MEAS_UNIT=GY
		PRESSURE=1013.25
		TEMPERATURE=20.00
		NORM_TEMPERATURE=20.00
		CORRECTION_FACTOR=1.0000
		CORRECTIONS=AIR_DENSITY_CORR;
		BEGIN_DATA
			-130.00		2.7005E-03
			-80.00		4.2493E-03
			-40.00		7.8229E-03
			40.00		6.9215E-03
			80.00		4.2469E-03
			130.00		2.7244E-03
		END_DATA
	END_SCAN  1
	BEGIN_SCAN  2
		TASK_NAME=MODE_INTERVAL
		PROGRAM=BeamAdjust 1.2
		MEAS_DATE=07-Oct-2010 14:17:27
		LINAC=A4
		MODALITY=X
		INPLANE_AXIS_DIR=TARGET_GUN
		CROSSPLANE_AXIS_DIR=LEFT_RIGHT
		DEPTH_AXIS_DIR=UP_DOWN
		ENERGY=6.00
		SSD=950.00
		WEDGE=None
		FIELD_INPLANE=100.00
		FIELD_CROSSPLANE=100.00
		FIELD_TYPE=RECTANGULAR
		GANTRY=0.00
		GANTRY_UPRIGHT_POSITION=0
		GANTRY_ROTATION=CW
		COLL_ANGLE=90.00
		COLL_OFFSET_INPLANE=0.00
		COLL_OFFSET_CROSSPLANE=0.00
		SCAN_DEVICE=STARCHECK
		ELECTROMETER=2D_ARRAY_INTERFACE
		DETECTOR=STARCHECK
		SCAN_CURVETYPE=CROSSPLANE_PROFILE
		SCAN_DEPTH=0.00
		SCAN_OFFAXIS_INPLANE=-100.00
		SCAN_ANGLE=0.00
		SCAN_DIAGONAL=NOT_DIAGONAL
		MEAS_PRESET=TIME_PRESET
		MEAS_TIME=10.000
		MEAS_UNIT=GY
		PRESSURE=1013.25
		TEMPERATURE=20.00
		NORM_TEMPERATURE=20.00
		CORRECTION_FACTOR=1.0000
		CORRECTIONS=AIR_DENSITY_CORR;
		BEGIN_DATA
			-60.00		10.436E-03
			-30.00		15.000E-03
			30.00		15.490E-03
			60.00		10.340E-03
		END_DATA
	END_SCAN  2
	BEGIN_SCAN  3
		TASK_NAME=MODE_INTERVAL
		PROGRAM=BeamAdjust 1.2
		MEAS_DATE=07-Oct-2010 14:17:27
		LINAC=A4
		MODALITY=X
		INPLANE_AXIS_DIR=TARGET_GUN
		CROSSPLANE_AXIS_DIR=LEFT_RIGHT
		DEPTH_AXIS_DIR=UP_DOWN
		ENERGY=6.00
		SSD=950.00
		WEDGE=None
		FIELD_INPLANE=100.00
		FIELD_CROSSPLANE=100.00
		FIELD_TYPE=RECTANGULAR
		GANTRY=0.00
		GANTRY_UPRIGHT_POSITION=0
		GANTRY_ROTATION=CW
		COLL_ANGLE=90.00
		COLL_OFFSET_INPLANE=0.00
		COLL_OFFSET_CROSSPLANE=0.00
		SCAN_DEVICE=STARCHECK
		ELECTROMETER=2D_ARRAY_INTERFACE
		DETECTOR=STARCHECK
		SCAN_CURVETYPE=CROSSPLANE_PROFILE
		SCAN_DEPTH=0.00
		SCAN_OFFAXIS_INPLANE=-50.00
		SCAN_ANGLE=0.00
		SCAN_DIAGONAL=NOT_DIAGONAL
		MEAS_PRESET=TIME_PRESET
		MEAS_TIME=10.000
		MEAS_UNIT=GY
		PRESSURE=1013.25
		TEMPERATURE=20.00
		NORM_TEMPERATURE=20.00
		CORRECTION_FACTOR=1.0000
		CORRECTIONS=AIR_DENSITY_CORR;
		BEGIN_DATA
			-30.00		485.67E-03
			-15.00		449.83E-03
			15.00		475.02E-03
			30.00		483.67E-03
		END_DATA
	END_SCAN  3
	BEGIN_SCAN  4
		TASK_NAME=MODE_INTERVAL
		PROGRAM=BeamAdjust 1.2
		MEAS_DATE=07-Oct-2010 14:17:27
		LINAC=A4
		MODALITY=X
		INPLANE_AXIS_DIR=TARGET_GUN
		CROSSPLANE_AXIS_DIR=LEFT_RIGHT
		DEPTH_AXIS_DIR=UP_DOWN
		ENERGY=6.00
		SSD=950.00
		WEDGE=None
		FIELD_INPLANE=100.00
		FIELD_CROSSPLANE=100.00
		FIELD_TYPE=RECTANGULAR
		GANTRY=0.00
		GANTRY_UPRIGHT_POSITION=0
		GANTRY_ROTATION=CW
		COLL_ANGLE=90.00
		COLL_OFFSET_INPLANE=0.00
		COLL_OFFSET_CROSSPLANE=0.00
		SCAN_DEVICE=STARCHECK
		ELECTROMETER=2D_ARRAY_INTERFACE
		DETECTOR=STARCHECK
		SCAN_CURVETYPE=CROSSPLANE_PROFILE
		SCAN_DEPTH=0.00
		SCAN_OFFAXIS_INPLANE=0.00
		SCAN_ANGLE=0.00
		SCAN_DIAGONAL=NOT_DIAGONAL
		MEAS_PRESET=TIME_PRESET
		MEAS_TIME=10.000
		MEAS_UNIT=GY
		PRESSURE=1013.25
		TEMPERATURE=20.00
		NORM_TEMPERATURE=20.00
		CORRECTION_FACTOR=1.0000
		CORRECTIONS=AIR_DENSITY_CORR;
		BEGIN_DATA
			-126.00		6.7722E-03
			-123.00		7.7429E-03
			-120.00		8.3698E-03
			-117.00		8.8891E-03
			-114.00		8.6932E-03
			-111.00		9.3496E-03
			-108.00		10.327E-03
			-105.00		10.810E-03
			-102.00		11.702E-03
			-99.00		12.908E-03
			-96.00		14.114E-03
			-93.00		15.452E-03
			-90.00		16.838E-03
			-87.00		18.205E-03
			-84.00		20.378E-03
			-81.00		21.671E-03
			-78.00		24.125E-03
			-75.00		26.800E-03
			-72.00		29.615E-03
			-69.00		34.055E-03
			-66.00		39.546E-03
			-63.00		45.524E-03
			-60.00		55.336E-03
			-57.00		72.441E-03
			-54.00		114.30E-03
			-51.00		291.00E-03
			-48.00		555.40E-03
			-45.00		617.03E-03
			-42.00		636.49E-03
			-39.00		649.39E-03
			-36.00		655.66E-03
			-33.00		655.73E-03
			-30.00		657.53E-03
			-27.00		660.36E-03
			-24.00		662.59E-03
			-21.00		662.01E-03
			-18.00		668.02E-03
			-15.00		668.35E-03
			-12.00		667.71E-03
			-9.00		670.30E-03
			-6.00		669.57E-03
			0.00		668.66E-03
			6.00		672.00E-03
			9.00		671.30E-03
			12.00		668.50E-03
			15.00		668.31E-03
			18.00		666.98E-03
			21.00		665.18E-03
			24.00		661.50E-03
			27.00		665.64E-03
			30.00		663.76E-03
			33.00		661.60E-03
			36.00		657.93E-03
			39.00		652.01E-03
			42.00		640.76E-03
			45.00		615.47E-03
			48.00		526.33E-03
			51.00		232.58E-03
			54.00		101.85E-03
			57.00		68.691E-03
			60.00		53.006E-03
			63.00		44.382E-03
			66.00		37.727E-03
			69.00		33.124E-03
			72.00		29.561E-03
			75.00		26.638E-03
			78.00		23.731E-03
			81.00		21.627E-03
			84.00		19.759E-03
			87.00		17.583E-03
			90.00		16.587E-03
			93.00		14.810E-03
			96.00		13.247E-03
			99.00		13.275E-03
			102.00		11.886E-03
			105.00		11.064E-03
			108.00		10.581E-03
			111.00		8.9931E-03
			114.00		8.5845E-03
			117.00		7.8690E-03
			120.00		7.1757E-03
			123.00		7.0019E-03
			126.00		6.9747E-03
		END_DATA
	END_SCAN  4
	BEGIN_SCAN  5
		TASK_NAME=MODE_INTERVAL
		PROGRAM=BeamAdjust 1.2
		MEAS_DATE=07-Oct-2010 14:17:27
		LINAC=A4
		MODALITY=X
		INPLANE_AXIS_DIR=TARGET_GUN
		CROSSPLANE_AXIS_DIR=LEFT_RIGHT
		DEPTH_AXIS_DIR=UP_DOWN
		ENERGY=6.00
		SSD=950.00
		WEDGE=None
		FIELD_INPLANE=100.00
		FIELD_CROSSPLANE=100.00
		FIELD_TYPE=RECTANGULAR
		GANTRY=0.00
		GANTRY_UPRIGHT_POSITION=0
		GANTRY_ROTATION=CW
		COLL_ANGLE=90.00
		COLL_OFFSET_INPLANE=0.00
		COLL_OFFSET_CROSSPLANE=0.00
		SCAN_DEVICE=STARCHECK
		ELECTROMETER=2D_ARRAY_INTERFACE
		DETECTOR=STARCHECK
		SCAN_CURVETYPE=CROSSPLANE_PROFILE
		SCAN_DEPTH=0.00
		SCAN_OFFAXIS_INPLANE=50.00
		SCAN_ANGLE=0.00
		SCAN_DIAGONAL=NOT_DIAGONAL
		MEAS_PRESET=TIME_PRESET
		MEAS_TIME=10.000
		MEAS_UNIT=GY
		PRESSURE=1013.25
		TEMPERATURE=20.00
		NORM_TEMPERATURE=20.00
		CORRECTION_FACTOR=1.0000
		CORRECTIONS=AIR_DENSITY_CORR;
		BEGIN_DATA
			-30.00		190.54E-03
			-15.00		198.69E-03
			15.00		176.98E-03
			30.00		183.38E-03
		END_DATA
	END_SCAN  5
	BEGIN_SCAN  6
		TASK_NAME=MODE_INTERVAL
		PROGRAM=BeamAdjust 1.2
		MEAS_DATE=07-Oct-2010 14:17:27
		LINAC=A4
		MODALITY=X
		INPLANE_AXIS_DIR=TARGET_GUN
		CROSSPLANE_AXIS_DIR=LEFT_RIGHT
		DEPTH_AXIS_DIR=UP_DOWN
		ENERGY=6.00
		SSD=950.00
		WEDGE=None
		FIELD_INPLANE=100.00
		FIELD_CROSSPLANE=100.00
		FIELD_TYPE=RECTANGULAR
		GANTRY=0.00
		GANTRY_UPRIGHT_POSITION=0
		GANTRY_ROTATION=CW
		COLL_ANGLE=90.00
		COLL_OFFSET_INPLANE=0.00
		COLL_OFFSET_CROSSPLANE=0.00
		SCAN_DEVICE=STARCHECK
		ELECTROMETER=2D_ARRAY_INTERFACE
		DETECTOR=STARCHECK
		SCAN_CURVETYPE=CROSSPLANE_PROFILE
		SCAN_DEPTH=0.00
		SCAN_OFFAXIS_INPLANE=100.00
		SCAN_ANGLE=0.00
		SCAN_DIAGONAL=NOT_DIAGONAL
		MEAS_PRESET=TIME_PRESET
		MEAS_TIME=10.000
		MEAS_UNIT=GY
		PRESSURE=1013.25
		TEMPERATURE=20.00
		NORM_TEMPERATURE=20.00
		CORRECTION_FACTOR=1.0000
		CORRECTIONS=AIR_DENSITY_CORR;
		BEGIN_DATA
			-60.00		9.8257E-03
			-30.00		14.524E-03
			30.00		14.334E-03
			60.00		8.6675E-03
		END_DATA
	END_SCAN  6
	BEGIN_SCAN  7
		TASK_NAME=MODE_INTERVAL
		PROGRAM=BeamAdjust 1.2
		MEAS_DATE=07-Oct-2010 14:17:27
		LINAC=A4
		MODALITY=X
		INPLANE_AXIS_DIR=TARGET_GUN
		CROSSPLANE_AXIS_DIR=LEFT_RIGHT
		DEPTH_AXIS_DIR=UP_DOWN
		ENERGY=6.00
		SSD=950.00
		WEDGE=None
		FIELD_INPLANE=100.00
		FIELD_CROSSPLANE=100.00
		FIELD_TYPE=RECTANGULAR
		GANTRY=0.00
		GANTRY_UPRIGHT_POSITION=0
		GANTRY_ROTATION=CW
		COLL_ANGLE=90.00
		COLL_OFFSET_INPLANE=0.00
		COLL_OFFSET_CROSSPLANE=0.00
		SCAN_DEVICE=STARCHECK
		ELECTROMETER=2D_ARRAY_INTERFACE
		DETECTOR=STARCHECK
		SCAN_CURVETYPE=CROSSPLANE_PROFILE
		SCAN_DEPTH=0.00
		SCAN_OFFAXIS_INPLANE=130.00
		SCAN_ANGLE=0.00
		SCAN_DIAGONAL=NOT_DIAGONAL
		MEAS_PRESET=TIME_PRESET
		MEAS_TIME=10.000
		MEAS_UNIT=GY
		PRESSURE=1013.25
		TEMPERATURE=20.00
		NORM_TEMPERATURE=20.00
		CORRECTION_FACTOR=1.0000
		CORRECTIONS=AIR_DENSITY_CORR;
		BEGIN_DATA
			-130.00		1.7588E-03
			-80.00		3.9589E-03
			-40.00		7.2822E-03
			40.00		7.2027E-03
			80.00		3.9555E-03
			130.00		2.0165E-03
		END_DATA
	END_SCAN  7
	BEGIN_SCAN  8
		TASK_NAME=MODE_INTERVAL
		PROGRAM=BeamAdjust 1.2
		MEAS_DATE=07-Oct-2010 14:17:27
		LINAC=A4
		MODALITY=X
		INPLANE_AXIS_DIR=TARGET_GUN
		CROSSPLANE_AXIS_DIR=LEFT_RIGHT
		DEPTH_AXIS_DIR=UP_DOWN
		ENERGY=6.00
		SSD=950.00
		WEDGE=None
		FIELD_INPLANE=100.00
		FIELD_CROSSPLANE=100.00
		FIELD_TYPE=RECTANGULAR
		GANTRY=0.00
		GANTRY_UPRIGHT_POSITION=0
		GANTRY_ROTATION=CW
		COLL_ANGLE=90.00
		COLL_OFFSET_INPLANE=0.00
		COLL_OFFSET_CROSSPLANE=0.00
		SCAN_DEVICE=STARCHECK
		ELECTROMETER=2D_ARRAY_INTERFACE
		DETECTOR=STARCHECK
		SCAN_CURVETYPE=INPLANE_PROFILE
		SCAN_DEPTH=0.00
		SCAN_OFFAXIS_CROSSPLANE=-130.00
		SCAN_ANGLE=0.00
		SCAN_DIAGONAL=NOT_DIAGONAL
		MEAS_PRESET=TIME_PRESET
		MEAS_TIME=10.000
		MEAS_UNIT=GY
		PRESSURE=1013.25
		TEMPERATURE=20.00
		NORM_TEMPERATURE=20.00
		CORRECTION_FACTOR=1.0000
		CORRECTIONS=AIR_DENSITY_CORR;
		BEGIN_DATA
			-130.00		2.7005E-03
			-125.00		2.8883E-03
			-120.00		2.9170E-03
			-115.00		3.2105E-03
			-110.00		3.1155E-03
			-105.00		3.5413E-03
			-100.00		4.1060E-03
			-95.00		4.6962E-03
			-90.00		4.8346E-03
			-85.00		4.4356E-03
			-80.00		4.2994E-03
			-75.00		4.8510E-03
			-70.00		5.1892E-03
			-65.00		4.7993E-03
			-60.00		5.0099E-03
			-55.00		5.9986E-03
			-50.00		4.5339E-03
			-45.00		4.9610E-03
			-40.00		5.0009E-03
			-35.00		5.5047E-03
			-30.00		5.1926E-03
			-25.00		4.9458E-03
			-20.00		4.7833E-03
			-15.00		4.7752E-03
			-10.00		5.4101E-03
			-5.00		6.5087E-03
			0.00		6.3292E-03
			5.00		6.5504E-03
			10.00		5.8063E-03
			15.00		5.5345E-03
			20.00		5.7292E-03
			25.00		4.8618E-03
			30.00		5.3512E-03
			35.00		5.3511E-03
			40.00		4.9142E-03
			45.00		4.7013E-03
			50.00		5.0548E-03
			55.00		4.5181E-03
			60.00		4.4544E-03
			65.00		4.1674E-03
			70.00		3.6818E-03
			75.00		3.7875E-03
			80.00		3.4259E-03
			85.00		3.4554E-03
			90.00		3.2663E-03
			95.00		3.3057E-03
			100.00		3.0190E-03
			105.00		2.5563E-03
			110.00		2.4725E-03
			115.00		2.2371E-03
			120.00		2.4397E-03
			125.00		2.4089E-03
			130.00		1.7588E-03
		END_DATA
	END_SCAN  8
	BEGIN_SCAN  9
		TASK_NAME=MODE_INTERVAL
		PROGRAM=BeamAdjust 1.2
		MEAS_DATE=07-Oct-2010 14:17:27
		LINAC=A4
		MODALITY=X
		INPLANE_AXIS_DIR=TARGET_GUN
		CROSSPLANE_AXIS_DIR=LEFT_RIGHT
		DEPTH_AXIS_DIR=UP_DOWN
		ENERGY=6.00
		SSD=950.00
		WEDGE=None
		FIELD_INPLANE=100.00
		FIELD_CROSSPLANE=100.00
		FIELD_TYPE=RECTANGULAR
		GANTRY=0.00
		GANTRY_UPRIGHT_POSITION=0
		GANTRY_ROTATION=CW
		COLL_ANGLE=90.00
		COLL_OFFSET_INPLANE=0.00
		COLL_OFFSET_CROSSPLANE=0.00
		SCAN_DEVICE=STARCHECK
		ELECTROMETER=2D_ARRAY_INTERFACE
		DETECTOR=STARCHECK
		SCAN_CURVETYPE=INPLANE_PROFILE
		SCAN_DEPTH=0.00
		SCAN_OFFAXIS_CROSSPLANE=-100.00
		SCAN_ANGLE=0.00
		SCAN_DIAGONAL=NOT_DIAGONAL
		MEAS_PRESET=TIME_PRESET
		MEAS_TIME=10.000
		MEAS_UNIT=GY
		PRESSURE=1013.25
		TEMPERATURE=20.00
		NORM_TEMPERATURE=20.00
		CORRECTION_FACTOR=1.0000
		CORRECTIONS=AIR_DENSITY_CORR;
		BEGIN_DATA
			-60.00		8.8984E-03
			-30.00		10.599E-03
			30.00		10.210E-03
			60.00		7.9691E-03
		END_DATA
	END_SCAN  9
	BEGIN_SCAN  10
		TASK_NAME=MODE_INTERVAL
		PROGRAM=BeamAdjust 1.2
		MEAS_DATE=07-Oct-2010 14:17:27
		LINAC=A4
		MODALITY=X
		INPLANE_AXIS_DIR=TARGET_GUN
		CROSSPLANE_AXIS_DIR=LEFT_RIGHT
		DEPTH_AXIS_DIR=UP_DOWN
		ENERGY=6.00
		SSD=950.00
		WEDGE=None
		FIELD_INPLANE=100.00
		FIELD_CROSSPLANE=100.00
		FIELD_TYPE=RECTANGULAR
		GANTRY=0.00
		GANTRY_UPRIGHT_POSITION=0
		GANTRY_ROTATION=CW
		COLL_ANGLE=90.00
		COLL_OFFSET_INPLANE=0.00
		COLL_OFFSET_CROSSPLANE=0.00
		SCAN_DEVICE=STARCHECK
		ELECTROMETER=2D_ARRAY_INTERFACE
		DETECTOR=STARCHECK
		SCAN_CURVETYPE=INPLANE_PROFILE
		SCAN_DEPTH=0.00
		SCAN_OFFAXIS_CROSSPLANE=-50.00
		SCAN_ANGLE=0.00
		SCAN_DIAGONAL=NOT_DIAGONAL
		MEAS_PRESET=TIME_PRESET
		MEAS_TIME=10.000
		MEAS_UNIT=GY
		PRESSURE=1013.25
		TEMPERATURE=20.00
		NORM_TEMPERATURE=20.00
		CORRECTION_FACTOR=1.0000
		CORRECTIONS=AIR_DENSITY_CORR;
		BEGIN_DATA
			-30.00		398.01E-03
			-15.00		394.45E-03
			15.00		383.71E-03
			30.00		372.40E-03
		END_DATA
	END_SCAN  10
	BEGIN_SCAN  11
		TASK_NAME=MODE_INTERVAL
		PROGRAM=BeamAdjust 1.2
		MEAS_DATE=07-Oct-2010 14:17:27
		LINAC=A4
		MODALITY=X
		INPLANE_AXIS_DIR=TARGET_GUN
		CROSSPLANE_AXIS_DIR=LEFT_RIGHT
		DEPTH_AXIS_DIR=UP_DOWN
		ENERGY=6.00
		SSD=950.00
		WEDGE=None
		FIELD_INPLANE=100.00
		FIELD_CROSSPLANE=100.00
		FIELD_TYPE=RECTANGULAR
		GANTRY=0.00
		GANTRY_UPRIGHT_POSITION=0
		GANTRY_ROTATION=CW
		COLL_ANGLE=90.00
		COLL_OFFSET_INPLANE=0.00
		COLL_OFFSET_CROSSPLANE=0.00
		SCAN_DEVICE=STARCHECK
		ELECTROMETER=2D_ARRAY_INTERFACE
		DETECTOR=STARCHECK
		SCAN_CURVETYPE=INPLANE_PROFILE
		SCAN_DEPTH=0.00
		SCAN_OFFAXIS_CROSSPLANE=0.00
		SCAN_ANGLE=0.00
		SCAN_DIAGONAL=NOT_DIAGONAL
		MEAS_PRESET=TIME_PRESET
		MEAS_TIME=10.000
		MEAS_UNIT=GY
		PRESSURE=1013.25
		TEMPERATURE=20.00
		NORM_TEMPERATURE=20.00
		CORRECTION_FACTOR=1.0000
		CORRECTIONS=AIR_DENSITY_CORR;
		BEGIN_DATA
			-126.00		9.2779E-03
			-123.00		9.0258E-03
			-120.00		10.439E-03
			-117.00		12.125E-03
			-114.00		12.145E-03
			-111.00		13.112E-03
			-108.00		13.946E-03
			-105.00		15.334E-03
			-102.00		16.732E-03
			-99.00		17.269E-03
			-96.00		18.769E-03
			-93.00		21.021E-03
			-90.00		22.460E-03
			-87.00		24.227E-03
			-84.00		26.361E-03
			-81.00		28.871E-03
			-78.00		31.604E-03
			-75.00		35.061E-03
			-72.00		38.161E-03
			-69.00		42.358E-03
			-66.00		48.374E-03
			-63.00		55.920E-03
			-60.00		68.705E-03
			-57.00		96.446E-03
			-54.00		178.11E-03
			-51.00		419.36E-03
			-48.00		597.17E-03
			-45.00		634.48E-03
			-42.00		648.33E-03
			-39.00		655.81E-03
			-36.00		660.14E-03
			-33.00		663.52E-03
			-30.00		666.15E-03
			-27.00		667.00E-03
			-24.00		666.09E-03
			-21.00		665.65E-03
			-18.00		672.71E-03
			-15.00		670.91E-03
			-12.00		671.17E-03
			-9.00		670.96E-03
			-6.00		668.04E-03
			0.00		668.66E-03
			6.00		673.06E-03
			9.00		671.90E-03
			12.00		670.32E-03
			15.00		668.12E-03
			18.00		664.96E-03
			21.00		664.15E-03
			24.00		660.70E-03
			27.00		661.72E-03
			30.00		657.05E-03
			33.00		654.26E-03
			36.00		650.81E-03
			39.00		638.06E-03
			42.00		620.93E-03
			45.00		562.34E-03
			48.00		321.07E-03
			51.00		141.17E-03
			54.00		83.395E-03
			57.00		63.153E-03
			60.00		52.986E-03
			63.00		45.557E-03
			66.00		40.948E-03
			69.00		36.793E-03
			72.00		33.443E-03
			75.00		30.071E-03
			78.00		26.826E-03
			81.00		24.958E-03
			84.00		23.197E-03
			87.00		21.314E-03
			90.00		19.994E-03
			93.00		18.282E-03
			96.00		17.002E-03
			99.00		15.728E-03
			102.00		14.381E-03
			105.00		13.194E-03
			108.00		12.998E-03
			111.00		11.539E-03
			114.00		11.070E-03
			117.00		10.027E-03
			120.00		9.2119E-03
			123.00		8.8807E-03
			126.00		7.9630E-03
		END_DATA
	END_SCAN  11
	BEGIN_SCAN  12
		TASK_NAME=MODE_INTERVAL
		PROGRAM=BeamAdjust 1.2
		MEAS_DATE=07-Oct-2010 14:17:27
		LINAC=A4
		MODALITY=X
		INPLANE_AXIS_DIR=TARGET_GUN
		CROSSPLANE_AXIS_DIR=LEFT_RIGHT
		DEPTH_AXIS_DIR=UP_DOWN
		ENERGY=6.00
		SSD=950.00
		WEDGE=None
		FIELD_INPLANE=100.00
		FIELD_CROSSPLANE=100.00
		FIELD_TYPE=RECTANGULAR
		GANTRY=0.00
		GANTRY_UPRIGHT_POSITION=0
		GANTRY_ROTATION=CW
		COLL_ANGLE=90.00
		COLL_OFFSET_INPLANE=0.00
		COLL_OFFSET_CROSSPLANE=0.00
		SCAN_DEVICE=STARCHECK
		ELECTROMETER=2D_ARRAY_INTERFACE
		DETECTOR=STARCHECK
		SCAN_CURVETYPE=INPLANE_PROFILE
		SCAN_DEPTH=0.00
		SCAN_OFFAXIS_CROSSPLANE=50.00
		SCAN_ANGLE=0.00
		SCAN_DIAGONAL=NOT_DIAGONAL
		MEAS_PRESET=TIME_PRESET
		MEAS_TIME=10.000
		MEAS_UNIT=GY
		PRESSURE=1013.25
		TEMPERATURE=20.00
		NORM_TEMPERATURE=20.00
		CORRECTION_FACTOR=1.0000
		CORRECTIONS=AIR_DENSITY_CORR;
		BEGIN_DATA
			-30.00		327.56E-03
			-15.00		336.59E-03
			15.00		343.60E-03
			30.00		344.14E-03
		END_DATA
	END_SCAN  12
	BEGIN_SCAN  13
		TASK_NAME=MODE_INTERVAL
		PROGRAM=BeamAdjust 1.2
		MEAS_DATE=07-Oct-2010 14:17:27
		LINAC=A4
		MODALITY=X
		INPLANE_AXIS_DIR=TARGET_GUN
		CROSSPLANE_AXIS_DIR=LEFT_RIGHT
		DEPTH_AXIS_DIR=UP_DOWN
		ENERGY=6.00
		SSD=950.00
		WEDGE=None
		FIELD_INPLANE=100.00
		FIELD_CROSSPLANE=100.00
		FIELD_TYPE=RECTANGULAR
		GANTRY=0.00
		GANTRY_UPRIGHT_POSITION=0
		GANTRY_ROTATION=CW
		COLL_ANGLE=90.00
		COLL_OFFSET_INPLANE=0.00
		COLL_OFFSET_CROSSPLANE=0.00
		SCAN_DEVICE=STARCHECK
		ELECTROMETER=2D_ARRAY_INTERFACE
		DETECTOR=STARCHECK
		SCAN_CURVETYPE=INPLANE_PROFILE
		SCAN_DEPTH=0.00
		SCAN_OFFAXIS_CROSSPLANE=100.00
		SCAN_ANGLE=0.00
		SCAN_DIAGONAL=NOT_DIAGONAL
		MEAS_PRESET=TIME_PRESET
		MEAS_TIME=10.000
		MEAS_UNIT=GY
		PRESSURE=1013.25
		TEMPERATURE=20.00
		NORM_TEMPERATURE=20.00
		CORRECTION_FACTOR=1.0000
		CORRECTIONS=AIR_DENSITY_CORR;
		BEGIN_DATA
			-60.00		8.1628E-03
			-30.00		10.502E-03
			30.00		10.541E-03
			60.00		7.2743E-03
		END_DATA
	END_SCAN  13
	BEGIN_SCAN  14
		TASK_NAME=MODE_INTERVAL
		PROGRAM=BeamAdjust 1.2
		MEAS_DATE=07-Oct-2010 14:17:27
		LINAC=A4
		MODALITY=X
		INPLANE_AXIS_DIR=TARGET_GUN
		CROSSPLANE_AXIS_DIR=LEFT_RIGHT
		DEPTH_AXIS_DIR=UP_DOWN
		ENERGY=6.00
		SSD=950.00
		WEDGE=None
		FIELD_INPLANE=100.00
		FIELD_CROSSPLANE=100.00
		FIELD_TYPE=RECTANGULAR
		GANTRY=0.00
		GANTRY_UPRIGHT_POSITION=0
		GANTRY_ROTATION=CW
		COLL_ANGLE=90.00
		COLL_OFFSET_INPLANE=0.00
		COLL_OFFSET_CROSSPLANE=0.00
		SCAN_DEVICE=STARCHECK
		ELECTROMETER=2D_ARRAY_INTERFACE
		DETECTOR=STARCHECK
		SCAN_CURVETYPE=INPLANE_PROFILE
		SCAN_DEPTH=0.00
		SCAN_OFFAXIS_CROSSPLANE=130.00
		SCAN_ANGLE=0.00
		SCAN_DIAGONAL=NOT_DIAGONAL
		MEAS_PRESET=TIME_PRESET
		MEAS_TIME=10.000
		MEAS_UNIT=GY
		PRESSURE=1013.25
		TEMPERATURE=20.00
		NORM_TEMPERATURE=20.00
		CORRECTION_FACTOR=1.0000
		CORRECTIONS=AIR_DENSITY_CORR;
		BEGIN_DATA
			-130.00		2.7244E-03
			-125.00		2.6710E-03
			-120.00		2.0990E-03
			-115.00		2.6900E-03
			-110.00		2.6091E-03
			-105.00		2.7804E-03
			-100.00		3.0447E-03
			-95.00		3.0032E-03
			-90.00		2.8376E-03
			-85.00		3.7355E-03
			-80.00		3.5250E-03
			-75.00		3.6602E-03
			-70.00		3.9838E-03
			-65.00		3.9849E-03
			-60.00		5.1557E-03
			-55.00		4.2720E-03
			-50.00		4.2989E-03
			-45.00		4.8802E-03
			-40.00		5.0191E-03
			-35.00		5.0273E-03
			-30.00		5.3186E-03
			-25.00		5.0144E-03
			-20.00		5.3812E-03
			-15.00		5.2705E-03
			-10.00		4.7831E-03
			-5.00		5.8495E-03
			0.00		6.0537E-03
			5.00		5.5128E-03
			10.00		6.1323E-03
			15.00		5.1233E-03
			20.00		5.3897E-03
			25.00		5.4480E-03
			30.00		5.0831E-03
			35.00		5.3249E-03
			40.00		5.5107E-03
			45.00		5.0298E-03
			50.00		4.6024E-03
			55.00		4.8978E-03
			60.00		4.5294E-03
			65.00		4.0859E-03
			70.00		4.2555E-03
			75.00		4.1578E-03
			80.00		4.5953E-03
			85.00		3.7919E-03
			90.00		3.3502E-03
			95.00		3.2376E-03
			100.00		3.7145E-03
			105.00		2.8187E-03
			110.00		2.6856E-03
			115.00		2.5826E-03
			120.00		2.5560E-03
			125.00		2.2668E-03
			130.00		2.0165E-03
		END_DATA
	END_SCAN  14
	BEGIN_SCAN  15
		TASK_NAME=MODE_INTERVAL
		PROGRAM=BeamAdjust 1.2
		MEAS_DATE=07-Oct-2010 14:17:27
		LINAC=A4
		MODALITY=X
		INPLANE_AXIS_DIR=TARGET_GUN
		CROSSPLANE_AXIS_DIR=LEFT_RIGHT
		DEPTH_AXIS_DIR=UP_DOWN
		ENERGY=6.00
		SSD=950.00
		WEDGE=None
		FIELD_INPLANE=100.00
		FIELD_CROSSPLANE=100.00
		FIELD_TYPE=RECTANGULAR
		GANTRY=0.00
		GANTRY_UPRIGHT_POSITION=0
		GANTRY_ROTATION=CW
		COLL_ANGLE=90.00
		COLL_OFFSET_INPLANE=0.00
		COLL_OFFSET_CROSSPLANE=0.00
		SCAN_DEVICE=STARCHECK
		ELECTROMETER=2D_ARRAY_INTERFACE
		DETECTOR=STARCHECK
		SCAN_CURVETYPE=INPLANE_PROFILE
		SCAN_DEPTH=0.00
		SCAN_OFFAXIS_CROSSPLANE=0.00
		SCAN_ANGLE=0.00
		SCAN_DIAGONAL=FIRST_DIAGONAL
		MEAS_PRESET=TIME_PRESET
		MEAS_TIME=10.000
		MEAS_UNIT=GY
		PRESSURE=1013.25
		TEMPERATURE=20.00
		NORM_TEMPERATURE=20.00
		CORRECTION_FACTOR=1.0000
		CORRECTIONS=AIR_DENSITY_CORR;
		BEGIN_DATA
			-172.40		2.8483E-03
			-169.40		3.1315E-03
			-166.40		3.8336E-03
			-163.40		3.4702E-03
			-160.40		4.3354E-03
			-157.40		3.9291E-03
			-154.40		3.9300E-03
			-151.40		4.0313E-03
			-148.40		4.8885E-03
			-145.40		5.4384E-03
			-142.40		5.9669E-03
			-139.40		6.2614E-03
			-136.40		6.1733E-03
			-133.40		6.8857E-03
			-130.40		7.2138E-03
			-127.40		7.5247E-03
			-124.40		8.1404E-03
			-121.40		9.1419E-03
			-118.40		10.609E-03
			-115.40		11.048E-03
			-112.40		11.578E-03
			-109.40		12.904E-03
			-106.40		13.908E-03
			-103.40		14.628E-03
			-100.40		16.025E-03
			-97.40		18.465E-03
			-94.40		20.444E-03
			-91.40		22.936E-03
			-88.40		25.627E-03
			-85.40		29.082E-03
			-82.40		33.900E-03
			-79.40		41.615E-03
			-76.40		57.836E-03
			-73.40		112.57E-03
			-70.40		281.65E-03
			-67.40		481.91E-03
			-64.40		578.77E-03
			-61.40		613.70E-03
			-58.40		629.73E-03
			-55.40		640.07E-03
			-52.40		646.11E-03
			-49.40		650.91E-03
			-46.40		653.09E-03
			-43.40		655.53E-03
			-40.40		658.15E-03
			-37.40		663.39E-03
			-34.40		662.55E-03
			-31.40		663.99E-03
			-28.40		662.27E-03
			-25.40		665.13E-03
			-22.40		665.74E-03
			-19.40		666.73E-03
			-16.40		670.34E-03
			-13.40		672.62E-03
			0.00		668.66E-03
			13.40		672.13E-03
			16.40		667.79E-03
			19.40		667.43E-03
			22.40		666.26E-03
			25.40		665.24E-03
			28.40		664.79E-03
			31.40		661.83E-03
			34.40		658.52E-03
			37.40		660.81E-03
			40.40		657.65E-03
			43.40		654.14E-03
			46.40		651.75E-03
			49.40		645.26E-03
			52.40		639.86E-03
			55.40		625.38E-03
			58.40		605.44E-03
			61.40		555.02E-03
			64.40		428.97E-03
			67.40		241.20E-03
			70.40		101.59E-03
			73.40		55.577E-03
			76.40		40.541E-03
			79.40		33.299E-03
			82.40		28.852E-03
			85.40		25.321E-03
			88.40		23.211E-03
			91.40		20.413E-03
			94.40		18.671E-03
			97.40		16.677E-03
			100.40		15.043E-03
			103.40		13.962E-03
			106.40		12.700E-03
			109.40		11.647E-03
			112.40		10.688E-03
			115.40		9.6872E-03
			118.40		8.8604E-03
			121.40		8.2968E-03
			124.40		7.7058E-03
			127.40		7.1727E-03
			130.40		6.8660E-03
			133.40		5.8789E-03
			136.40		5.0862E-03
			139.40		4.8699E-03
			142.40		4.6217E-03
			145.40		4.5246E-03
			148.40		4.5453E-03
			151.40		3.6133E-03
			154.40		4.1612E-03
			157.40		3.1421E-03
			160.40		2.2605E-03
			163.40		2.5172E-03
			166.40		2.9614E-03
			169.40		2.6801E-03
			172.40		2.7967E-03
		END_DATA
	END_SCAN  15
	BEGIN_SCAN  16
		TASK_NAME=MODE_INTERVAL
		PROGRAM=BeamAdjust 1.2
		MEAS_DATE=07-Oct-2010 14:17:27
		LINAC=A4
		MODALITY=X
		INPLANE_AXIS_DIR=GUN_TARGET
		CROSSPLANE_AXIS_DIR=LEFT_RIGHT
		DEPTH_AXIS_DIR=UP_DOWN
		ENERGY=6.00
		SSD=950.00
		WEDGE=None
		FIELD_INPLANE=100.00
		FIELD_CROSSPLANE=100.00
		FIELD_TYPE=RECTANGULAR
		GANTRY=0.00
		GANTRY_UPRIGHT_POSITION=0
		GANTRY_ROTATION=CW
		COLL_ANGLE=90.00
		COLL_OFFSET_INPLANE=0.00
		COLL_OFFSET_CROSSPLANE=0.00
		SCAN_DEVICE=STARCHECK
		ELECTROMETER=2D_ARRAY_INTERFACE
		DETECTOR=STARCHECK
		SCAN_CURVETYPE=INPLANE_PROFILE
		SCAN_DEPTH=0.00
		SCAN_OFFAXIS_CROSSPLANE=0.00
		SCAN_ANGLE=0.00
		SCAN_DIAGONAL=SECOND_DIAGONAL
		MEAS_PRESET=TIME_PRESET
		MEAS_TIME=10.000
		MEAS_UNIT=GY
		PRESSURE=1013.25
		TEMPERATURE=20.00
		NORM_TEMPERATURE=20.00
		CORRECTION_FACTOR=1.0000
		CORRECTIONS=AIR_DENSITY_CORR;
		BEGIN_DATA
			-172.40		2.7923E-03
			-169.40		2.8755E-03
			-166.40		2.8250E-03
			-163.40		2.8739E-03
			-160.40		3.3577E-03
			-157.40		3.5781E-03
			-154.40		3.8817E-03
			-151.40		4.2560E-03
			-148.40		4.6645E-03
			-145.40		5.2007E-03
			-142.40		5.3596E-03
			-139.40		5.4994E-03
			-136.40		5.7822E-03
			-133.40		6.5417E-03
			-130.40		6.7761E-03
			-127.40		7.7515E-03
			-124.40		8.5640E-03
			-121.40		9.1131E-03
			-118.40		9.8814E-03
			-115.40		10.417E-03
			-112.40		11.022E-03
			-109.40		12.400E-03
			-106.40		13.506E-03
			-103.40		15.117E-03
			-100.40		16.262E-03
			-97.40		17.744E-03
			-94.40		19.441E-03
			-91.40		22.336E-03
			-88.40		24.311E-03
			-85.40		27.573E-03
			-82.40		31.796E-03
			-79.40		38.549E-03
			-76.40		51.154E-03
			-73.40		88.366E-03
			-70.40		221.38E-03
			-67.40		430.98E-03
			-64.40		562.01E-03
			-61.40		611.25E-03
			-58.40		632.62E-03
			-55.40		641.75E-03
			-52.40		651.77E-03
			-49.40		656.16E-03
			-46.40		658.59E-03
			-43.40		661.74E-03
			-40.40		663.88E-03
			-37.40		667.13E-03
			-34.40		666.55E-03
			-31.40		667.20E-03
			-28.40		669.02E-03
			-25.40		667.64E-03
			-22.40		665.51E-03
			-19.40		669.72E-03
			-16.40		671.14E-03
			-13.40		673.77E-03
			0.00		668.66E-03
			13.40		671.67E-03
			16.40		668.54E-03
			19.40		665.51E-03
			22.40		663.13E-03
			25.40		662.55E-03
			28.40		661.08E-03
			31.40		659.12E-03
			34.40		656.30E-03
			37.40		655.43E-03
			40.40		653.68E-03
			43.40		651.28E-03
			46.40		649.55E-03
			49.40		644.82E-03
			52.40		635.55E-03
			55.40		624.97E-03
			58.40		608.58E-03
			61.40		564.86E-03
			64.40		453.26E-03
			67.40		264.75E-03
			70.40		110.23E-03
			73.40		57.947E-03
			76.40		41.345E-03
			79.40		33.983E-03
			82.40		30.042E-03
			85.40		26.711E-03
			88.40		23.447E-03
			91.40		21.146E-03
			94.40		18.892E-03
			97.40		17.228E-03
			100.40		14.957E-03
			103.40		13.556E-03
			106.40		12.876E-03
			109.40		11.656E-03
			112.40		10.721E-03
			115.40		9.9261E-03
			118.40		9.0319E-03
			121.40		8.2295E-03
			124.40		7.5246E-03
			127.40		7.4073E-03
			130.40		7.2905E-03
			133.40		6.4939E-03
			136.40		6.0317E-03
			139.40		6.0883E-03
			142.40		5.5279E-03
			145.40		5.0741E-03
			148.40		4.2893E-03
			151.40		3.6728E-03
			154.40		3.6850E-03
			157.40		3.8127E-03
			160.40		3.7528E-03
			163.40		4.1122E-03
			166.40		3.6397E-03
			169.40		3.3555E-03
			172.40		2.5728E-03
		END_DATA
	END_SCAN  16
END_SCAN_DATA
