BEGIN_SCAN_DATA
	FORMAT=CC-Export V1.9                  
	FILE_CREATION_DATE=07-Oct-2010 14:16:46
	LAST_MODIFIED=07-Oct-2010 14:16:46
	BEGIN_SCAN  1
		TASK_NAME=MODE_INTERVAL
		PROGRAM=BeamAdjust 1.2
		MEAS_DATE=07-Oct-2010 14:16:46
		LINAC=A4
		MODALITY=X
		INPLANE_AXIS_DIR=TARGET_GUN
		CROSSPLANE_AXIS_DIR=LEFT_RIGHT
		DEPTH_AXIS_DIR=UP_DOWN
		ENERGY=6.00
		SSD=950.00
		WEDGE=None
		FIELD_INPLANE=100.00
		FIELD_CROSSPLANE=100.00
		FIELD_TYPE=RECTANGULAR
		GANTRY=0.00
		GANTRY_UPRIGHT_POSITION=0
		GANTRY_ROTATION=CW
		COLL_ANGLE=90.00
		COLL_OFFSET_INPLANE=0.00
		COLL_OFFSET_CROSSPLANE=0.00
		SCAN_DEVICE=STARCHECK
		ELECTROMETER=2D_ARRAY_INTERFACE
		DETECTOR=STARCHECK
		SCAN_CURVETYPE=CROSSPLANE_PROFILE
		SCAN_DEPTH=0.00
		SCAN_OFFAXIS_INPLANE=-130.00
		SCAN_ANGLE=0.00
		SCAN_DIAGONAL=NOT_DIAGONAL
		MEAS_PRESET=TIME_PRESET
		MEAS_TIME=10.000
		MEAS_UNIT=GY
		PRESSURE=1013.25
		TEMPERATURE=20.00
		NORM_TEMPERATURE=20.00
		CORRECTION_FACTOR=1.0000
		CORRECTIONS=AIR_DENSITY_CORR;
		BEGIN_DATA
			-130.00		2.5015E-03
			-80.00		4.3031E-03
			-40.00		7.4482E-03
			40.00		7.1416E-03
			80.00		3.6982E-03
			130.00		1.9135E-03
		END_DATA
	END_SCAN  1
	BEGIN_SCAN  2
		TASK_NAME=MODE_INTERVAL
		PROGRAM=BeamAdjust 1.2
		MEAS_DATE=07-Oct-2010 14:16:46
		LINAC=A4
		MODALITY=X
		INPLANE_AXIS_DIR=TARGET_GUN
		CROSSPLANE_AXIS_DIR=LEFT_RIGHT
		DEPTH_AXIS_DIR=UP_DOWN
		ENERGY=6.00
		SSD=950.00
		WEDGE=None
		FIELD_INPLANE=100.00
		FIELD_CROSSPLANE=100.00
		FIELD_TYPE=RECTANGULAR
		GANTRY=0.00
		GANTRY_UPRIGHT_POSITION=0
		GANTRY_ROTATION=CW
		COLL_ANGLE=90.00
		COLL_OFFSET_INPLANE=0.00
		COLL_OFFSET_CROSSPLANE=0.00
		SCAN_DEVICE=STARCHECK
		ELECTROMETER=2D_ARRAY_INTERFACE
		DETECTOR=STARCHECK
		SCAN_CURVETYPE=CROSSPLANE_PROFILE
		SCAN_DEPTH=0.00
		SCAN_OFFAXIS_INPLANE=-100.00
		SCAN_ANGLE=0.00
		SCAN_DIAGONAL=NOT_DIAGONAL
		MEAS_PRESET=TIME_PRESET
		MEAS_TIME=10.000
		MEAS_UNIT=GY
		PRESSURE=1013.25
		TEMPERATURE=20.00
		NORM_TEMPERATURE=20.00
		CORRECTION_FACTOR=1.0000
		CORRECTIONS=AIR_DENSITY_CORR;
		BEGIN_DATA
			-60.00		10.451E-03
			-30.00		15.051E-03
			30.00		15.511E-03
			60.00		10.416E-03
		END_DATA
	END_SCAN  2
	BEGIN_SCAN  3
		TASK_NAME=MODE_INTERVAL
		PROGRAM=BeamAdjust 1.2
		MEAS_DATE=07-Oct-2010 14:16:46
		LINAC=A4
		MODALITY=X
		INPLANE_AXIS_DIR=TARGET_GUN
		CROSSPLANE_AXIS_DIR=LEFT_RIGHT
		DEPTH_AXIS_DIR=UP_DOWN
		ENERGY=6.00
		SSD=950.00
		WEDGE=None
		FIELD_INPLANE=100.00
		FIELD_CROSSPLANE=100.00
		FIELD_TYPE=RECTANGULAR
		GANTRY=0.00
		GANTRY_UPRIGHT_POSITION=0
		GANTRY_ROTATION=CW
		COLL_ANGLE=90.00
		COLL_OFFSET_INPLANE=0.00
		COLL_OFFSET_CROSSPLANE=0.00
		SCAN_DEVICE=STARCHECK
		ELECTROMETER=2D_ARRAY_INTERFACE
		DETECTOR=STARCHECK
		SCAN_CURVETYPE=CROSSPLANE_PROFILE
		SCAN_DEPTH=0.00
		SCAN_OFFAXIS_INPLANE=-50.00
		SCAN_ANGLE=0.00
		SCAN_DIAGONAL=NOT_DIAGONAL
		MEAS_PRESET=TIME_PRESET
		MEAS_TIME=10.000
		MEAS_UNIT=GY
		PRESSURE=1013.25
		TEMPERATURE=20.00
		NORM_TEMPERATURE=20.00
		CORRECTION_FACTOR=1.0000
		CORRECTIONS=AIR_DENSITY_CORR;
		BEGIN_DATA
			-30.00		505.59E-03
			-15.00		470.89E-03
			15.00		496.79E-03
			30.00		504.48E-03
		END_DATA
	END_SCAN  3
	BEGIN_SCAN  4
		TASK_NAME=MODE_INTERVAL
		PROGRAM=BeamAdjust 1.2
		MEAS_DATE=07-Oct-2010 14:16:46
		LINAC=A4
		MODALITY=X
		INPLANE_AXIS_DIR=TARGET_GUN
		CROSSPLANE_AXIS_DIR=LEFT_RIGHT
		DEPTH_AXIS_DIR=UP_DOWN
		ENERGY=6.00
		SSD=950.00
		WEDGE=None
		FIELD_INPLANE=100.00
		FIELD_CROSSPLANE=100.00
		FIELD_TYPE=RECTANGULAR
		GANTRY=0.00
		GANTRY_UPRIGHT_POSITION=0
		GANTRY_ROTATION=CW
		COLL_ANGLE=90.00
		COLL_OFFSET_INPLANE=0.00
		COLL_OFFSET_CROSSPLANE=0.00
		SCAN_DEVICE=STARCHECK
		ELECTROMETER=2D_ARRAY_INTERFACE
		DETECTOR=STARCHECK
		SCAN_CURVETYPE=CROSSPLANE_PROFILE
		SCAN_DEPTH=0.00
		SCAN_OFFAXIS_INPLANE=0.00
		SCAN_ANGLE=0.00
		SCAN_DIAGONAL=NOT_DIAGONAL
		MEAS_PRESET=TIME_PRESET
		MEAS_TIME=10.000
		MEAS_UNIT=GY
		PRESSURE=1013.25
		TEMPERATURE=20.00
		NORM_TEMPERATURE=20.00
		CORRECTION_FACTOR=1.0000
		CORRECTIONS=AIR_DENSITY_CORR;
		BEGIN_DATA
			-126.00		6.5319E-03
			-123.00		7.9057E-03
			-120.00		8.0829E-03
			-117.00		8.6964E-03
			-114.00		9.2231E-03
			-111.00		9.3883E-03
			-108.00		10.647E-03
			-105.00		10.979E-03
			-102.00		11.873E-03
			-99.00		12.794E-03
			-96.00		13.653E-03
			-93.00		15.123E-03
			-90.00		16.273E-03
			-87.00		17.854E-03
			-84.00		20.168E-03
			-81.00		22.466E-03
			-78.00		23.829E-03
			-75.00		27.071E-03
			-72.00		30.052E-03
			-69.00		34.395E-03
			-66.00		39.480E-03
			-63.00		45.383E-03
			-60.00		54.951E-03
			-57.00		72.600E-03
			-54.00		114.08E-03
			-51.00		291.44E-03
			-48.00		555.51E-03
			-45.00		617.22E-03
			-42.00		636.60E-03
			-39.00		649.58E-03
			-36.00		655.17E-03
			-33.00		655.59E-03
			-30.00		657.39E-03
			-27.00		660.17E-03
			-24.00		662.56E-03
			-21.00		662.26E-03
			-18.00		668.06E-03
			-15.00		668.32E-03
			-12.00		667.86E-03
			-9.00		670.57E-03
			-6.00		669.61E-03
			0.00		668.89E-03
			6.00		672.07E-03
			9.00		671.35E-03
			12.00		669.06E-03
			15.00		667.64E-03
			18.00		666.78E-03
			21.00		664.91E-03
			24.00		661.56E-03
			27.00		665.57E-03
			30.00		663.96E-03
			33.00		661.62E-03
			36.00		658.07E-03
			39.00		652.29E-03
			42.00		640.71E-03
			45.00		615.79E-03
			48.00		526.25E-03
			51.00		232.44E-03
			54.00		102.58E-03
			57.00		68.242E-03
			60.00		52.825E-03
			63.00		43.968E-03
			66.00		37.513E-03
			69.00		32.877E-03
			72.00		29.462E-03
			75.00		26.358E-03
			78.00		23.826E-03
			81.00		21.620E-03
			84.00		19.827E-03
			87.00		17.811E-03
			90.00		16.898E-03
			93.00		15.098E-03
			96.00		14.000E-03
			99.00		12.630E-03
			102.00		11.714E-03
			105.00		10.791E-03
			108.00		10.288E-03
			111.00		9.2833E-03
			114.00		8.6908E-03
			117.00		8.2106E-03
			120.00		7.0734E-03
			123.00		7.3221E-03
			126.00		7.0738E-03
		END_DATA
	END_SCAN  4
	BEGIN_SCAN  5
		TASK_NAME=MODE_INTERVAL
		PROGRAM=BeamAdjust 1.2
		MEAS_DATE=07-Oct-2010 14:16:46
		LINAC=A4
		MODALITY=X
		INPLANE_AXIS_DIR=TARGET_GUN
		CROSSPLANE_AXIS_DIR=LEFT_RIGHT
		DEPTH_AXIS_DIR=UP_DOWN
		ENERGY=6.00
		SSD=950.00
		WEDGE=None
		FIELD_INPLANE=100.00
		FIELD_CROSSPLANE=100.00
		FIELD_TYPE=RECTANGULAR
		GANTRY=0.00
		GANTRY_UPRIGHT_POSITION=0
		GANTRY_ROTATION=CW
		COLL_ANGLE=90.00
		COLL_OFFSET_INPLANE=0.00
		COLL_OFFSET_CROSSPLANE=0.00
		SCAN_DEVICE=STARCHECK
		ELECTROMETER=2D_ARRAY_INTERFACE
		DETECTOR=STARCHECK
		SCAN_CURVETYPE=CROSSPLANE_PROFILE
		SCAN_DEPTH=0.00
		SCAN_OFFAXIS_INPLANE=50.00
		SCAN_ANGLE=0.00
		SCAN_DIAGONAL=NOT_DIAGONAL
		MEAS_PRESET=TIME_PRESET
		MEAS_TIME=10.000
		MEAS_UNIT=GY
		PRESSURE=1013.25
		TEMPERATURE=20.00
		NORM_TEMPERATURE=20.00
		CORRECTION_FACTOR=1.0000
		CORRECTIONS=AIR_DENSITY_CORR;
		BEGIN_DATA
			-30.00		175.31E-03
			-15.00		182.60E-03
			15.00		162.42E-03
			30.00		168.83E-03
		END_DATA
	END_SCAN  5
	BEGIN_SCAN  6
		TASK_NAME=MODE_INTERVAL
		PROGRAM=BeamAdjust 1.2
		MEAS_DATE=07-Oct-2010 14:16:46
		LINAC=A4
		MODALITY=X
		INPLANE_AXIS_DIR=TARGET_GUN
		CROSSPLANE_AXIS_DIR=LEFT_RIGHT
		DEPTH_AXIS_DIR=UP_DOWN
		ENERGY=6.00
		SSD=950.00
		WEDGE=None
		FIELD_INPLANE=100.00
		FIELD_CROSSPLANE=100.00
		FIELD_TYPE=RECTANGULAR
		GANTRY=0.00
		GANTRY_UPRIGHT_POSITION=0
		GANTRY_ROTATION=CW
		COLL_ANGLE=90.00
		COLL_OFFSET_INPLANE=0.00
		COLL_OFFSET_CROSSPLANE=0.00
		SCAN_DEVICE=STARCHECK
		ELECTROMETER=2D_ARRAY_INTERFACE
		DETECTOR=STARCHECK
		SCAN_CURVETYPE=CROSSPLANE_PROFILE
		SCAN_DEPTH=0.00
		SCAN_OFFAXIS_INPLANE=100.00
		SCAN_ANGLE=0.00
		SCAN_DIAGONAL=NOT_DIAGONAL
		MEAS_PRESET=TIME_PRESET
		MEAS_TIME=10.000
		MEAS_UNIT=GY
		PRESSURE=1013.25
		TEMPERATURE=20.00
		NORM_TEMPERATURE=20.00
		CORRECTION_FACTOR=1.0000
		CORRECTIONS=AIR_DENSITY_CORR;
		BEGIN_DATA
			-60.00		9.6214E-03
			-30.00		14.375E-03
			30.00		14.593E-03
			60.00		8.5386E-03
		END_DATA
	END_SCAN  6
	BEGIN_SCAN  7
		TASK_NAME=MODE_INTERVAL
		PROGRAM=BeamAdjust 1.2
		MEAS_DATE=07-Oct-2010 14:16:46
		LINAC=A4
		MODALITY=X
		INPLANE_AXIS_DIR=TARGET_GUN
		CROSSPLANE_AXIS_DIR=LEFT_RIGHT
		DEPTH_AXIS_DIR=UP_DOWN
		ENERGY=6.00
		SSD=950.00
		WEDGE=None
		FIELD_INPLANE=100.00
		FIELD_CROSSPLANE=100.00
		FIELD_TYPE=RECTANGULAR
		GANTRY=0.00
		GANTRY_UPRIGHT_POSITION=0
		GANTRY_ROTATION=CW
		COLL_ANGLE=90.00
		COLL_OFFSET_INPLANE=0.00
		COLL_OFFSET_CROSSPLANE=0.00
		SCAN_DEVICE=STARCHECK
		ELECTROMETER=2D_ARRAY_INTERFACE
		DETECTOR=STARCHECK
		SCAN_CURVETYPE=CROSSPLANE_PROFILE
		SCAN_DEPTH=0.00
		SCAN_OFFAXIS_INPLANE=130.00
		SCAN_ANGLE=0.00
		SCAN_DIAGONAL=NOT_DIAGONAL
		MEAS_PRESET=TIME_PRESET
		MEAS_TIME=10.000
		MEAS_UNIT=GY
		PRESSURE=1013.25
		TEMPERATURE=20.00
		NORM_TEMPERATURE=20.00
		CORRECTION_FACTOR=1.0000
		CORRECTIONS=AIR_DENSITY_CORR;
		BEGIN_DATA
			-130.00		2.4804E-03
			-80.00		3.9485E-03
			-40.00		7.3346E-03
			40.00		6.8765E-03
			80.00		4.0983E-03
			130.00		1.9603E-03
		END_DATA
	END_SCAN  7
	BEGIN_SCAN  8
		TASK_NAME=MODE_INTERVAL
		PROGRAM=BeamAdjust 1.2
		MEAS_DATE=07-Oct-2010 14:16:46
		LINAC=A4
		MODALITY=X
		INPLANE_AXIS_DIR=TARGET_GUN
		CROSSPLANE_AXIS_DIR=LEFT_RIGHT
		DEPTH_AXIS_DIR=UP_DOWN
		ENERGY=6.00
		SSD=950.00
		WEDGE=None
		FIELD_INPLANE=100.00
		FIELD_CROSSPLANE=100.00
		FIELD_TYPE=RECTANGULAR
		GANTRY=0.00
		GANTRY_UPRIGHT_POSITION=0
		GANTRY_ROTATION=CW
		COLL_ANGLE=90.00
		COLL_OFFSET_INPLANE=0.00
		COLL_OFFSET_CROSSPLANE=0.00
		SCAN_DEVICE=STARCHECK
		ELECTROMETER=2D_ARRAY_INTERFACE
		DETECTOR=STARCHECK
		SCAN_CURVETYPE=INPLANE_PROFILE
		SCAN_DEPTH=0.00
		SCAN_OFFAXIS_CROSSPLANE=-130.00
		SCAN_ANGLE=0.00
		SCAN_DIAGONAL=NOT_DIAGONAL
		MEAS_PRESET=TIME_PRESET
		MEAS_TIME=10.000
		MEAS_UNIT=GY
		PRESSURE=1013.25
		TEMPERATURE=20.00
		NORM_TEMPERATURE=20.00
		CORRECTION_FACTOR=1.0000
		CORRECTIONS=AIR_DENSITY_CORR;
		BEGIN_DATA
			-130.00		2.5015E-03
			-125.00		2.5913E-03
			-120.00		2.9644E-03
			-115.00		3.3524E-03
			-110.00		3.0284E-03
			-105.00		3.5234E-03
			-100.00		3.9722E-03
			-95.00		4.5164E-03
			-90.00		4.6614E-03
			-85.00		4.4829E-03
			-80.00		4.8483E-03
			-75.00		5.0794E-03
			-70.00		5.0305E-03
			-65.00		5.2742E-03
			-60.00		5.2088E-03
			-55.00		6.1677E-03
			-50.00		4.3397E-03
			-45.00		4.7027E-03
			-40.00		4.6080E-03
			-35.00		5.4618E-03
			-30.00		5.2730E-03
			-25.00		5.0823E-03
			-20.00		5.1477E-03
			-15.00		4.9688E-03
			-10.00		5.8778E-03
			-5.00		6.4673E-03
			0.00		6.2321E-03
			5.00		6.3096E-03
			10.00		5.8537E-03
			15.00		5.4766E-03
			20.00		5.7382E-03
			25.00		5.0836E-03
			30.00		5.4318E-03
			35.00		5.2319E-03
			40.00		4.8030E-03
			45.00		4.4512E-03
			50.00		4.6665E-03
			55.00		4.3026E-03
			60.00		5.0511E-03
			65.00		4.0223E-03
			70.00		3.9478E-03
			75.00		4.0743E-03
			80.00		3.6696E-03
			85.00		3.6010E-03
			90.00		3.2752E-03
			95.00		3.3072E-03
			100.00		2.9413E-03
			105.00		2.2962E-03
			110.00		2.3263E-03
			115.00		2.0454E-03
			120.00		2.3297E-03
			125.00		2.2870E-03
			130.00		2.4804E-03
		END_DATA
	END_SCAN  8
	BEGIN_SCAN  9
		TASK_NAME=MODE_INTERVAL
		PROGRAM=BeamAdjust 1.2
		MEAS_DATE=07-Oct-2010 14:16:46
		LINAC=A4
		MODALITY=X
		INPLANE_AXIS_DIR=TARGET_GUN
		CROSSPLANE_AXIS_DIR=LEFT_RIGHT
		DEPTH_AXIS_DIR=UP_DOWN
		ENERGY=6.00
		SSD=950.00
		WEDGE=None
		FIELD_INPLANE=100.00
		FIELD_CROSSPLANE=100.00
		FIELD_TYPE=RECTANGULAR
		GANTRY=0.00
		GANTRY_UPRIGHT_POSITION=0
		GANTRY_ROTATION=CW
		COLL_ANGLE=90.00
		COLL_OFFSET_INPLANE=0.00
		COLL_OFFSET_CROSSPLANE=0.00
		SCAN_DEVICE=STARCHECK
		ELECTROMETER=2D_ARRAY_INTERFACE
		DETECTOR=STARCHECK
		SCAN_CURVETYPE=INPLANE_PROFILE
		SCAN_DEPTH=0.00
		SCAN_OFFAXIS_CROSSPLANE=-100.00
		SCAN_ANGLE=0.00
		SCAN_DIAGONAL=NOT_DIAGONAL
		MEAS_PRESET=TIME_PRESET
		MEAS_TIME=10.000
		MEAS_UNIT=GY
		PRESSURE=1013.25
		TEMPERATURE=20.00
		NORM_TEMPERATURE=20.00
		CORRECTION_FACTOR=1.0000
		CORRECTIONS=AIR_DENSITY_CORR;
		BEGIN_DATA
			-60.00		8.6023E-03
			-30.00		10.751E-03
			30.00		10.374E-03
			60.00		8.0182E-03
		END_DATA
	END_SCAN  9
	BEGIN_SCAN  10
		TASK_NAME=MODE_INTERVAL
		PROGRAM=BeamAdjust 1.2
		MEAS_DATE=07-Oct-2010 14:16:46
		LINAC=A4
		MODALITY=X
		INPLANE_AXIS_DIR=TARGET_GUN
		CROSSPLANE_AXIS_DIR=LEFT_RIGHT
		DEPTH_AXIS_DIR=UP_DOWN
		ENERGY=6.00
		SSD=950.00
		WEDGE=None
		FIELD_INPLANE=100.00
		FIELD_CROSSPLANE=100.00
		FIELD_TYPE=RECTANGULAR
		GANTRY=0.00
		GANTRY_UPRIGHT_POSITION=0
		GANTRY_ROTATION=CW
		COLL_ANGLE=90.00
		COLL_OFFSET_INPLANE=0.00
		COLL_OFFSET_CROSSPLANE=0.00
		SCAN_DEVICE=STARCHECK
		ELECTROMETER=2D_ARRAY_INTERFACE
		DETECTOR=STARCHECK
		SCAN_CURVETYPE=INPLANE_PROFILE
		SCAN_DEPTH=0.00
		SCAN_OFFAXIS_CROSSPLANE=-50.00
		SCAN_ANGLE=0.00
		SCAN_DIAGONAL=NOT_DIAGONAL
		MEAS_PRESET=TIME_PRESET
		MEAS_TIME=10.000
		MEAS_UNIT=GY
		PRESSURE=1013.25
		TEMPERATURE=20.00
		NORM_TEMPERATURE=20.00
		CORRECTION_FACTOR=1.0000
		CORRECTIONS=AIR_DENSITY_CORR;
		BEGIN_DATA
			-30.00		398.42E-03
			-15.00		394.69E-03
			15.00		383.92E-03
			30.00		373.07E-03
		END_DATA
	END_SCAN  10
	BEGIN_SCAN  11
		TASK_NAME=MODE_INTERVAL
		PROGRAM=BeamAdjust 1.2
		MEAS_DATE=07-Oct-2010 14:16:46
		LINAC=A4
		MODALITY=X
		INPLANE_AXIS_DIR=TARGET_GUN
		CROSSPLANE_AXIS_DIR=LEFT_RIGHT
		DEPTH_AXIS_DIR=UP_DOWN
		ENERGY=6.00
		SSD=950.00
		WEDGE=None
		FIELD_INPLANE=100.00
		FIELD_CROSSPLANE=100.00
		FIELD_TYPE=RECTANGULAR
		GANTRY=0.00
		GANTRY_UPRIGHT_POSITION=0
		GANTRY_ROTATION=CW
		COLL_ANGLE=90.00
		COLL_OFFSET_INPLANE=0.00
		COLL_OFFSET_CROSSPLANE=0.00
		SCAN_DEVICE=STARCHECK
		ELECTROMETER=2D_ARRAY_INTERFACE
		DETECTOR=STARCHECK
		SCAN_CURVETYPE=INPLANE_PROFILE
		SCAN_DEPTH=0.00
		SCAN_OFFAXIS_CROSSPLANE=0.00
		SCAN_ANGLE=0.00
		SCAN_DIAGONAL=NOT_DIAGONAL
		MEAS_PRESET=TIME_PRESET
		MEAS_TIME=10.000
		MEAS_UNIT=GY
		PRESSURE=1013.25
		TEMPERATURE=20.00
		NORM_TEMPERATURE=20.00
		CORRECTION_FACTOR=1.0000
		CORRECTIONS=AIR_DENSITY_CORR;
		BEGIN_DATA
			-126.00		9.1266E-03
			-123.00		9.3478E-03
			-120.00		11.109E-03
			-117.00		11.483E-03
			-114.00		12.006E-03
			-111.00		12.858E-03
			-108.00		14.030E-03
			-105.00		14.953E-03
			-102.00		16.568E-03
			-99.00		17.482E-03
			-96.00		18.977E-03
			-93.00		21.425E-03
			-90.00		22.877E-03
			-87.00		24.811E-03
			-84.00		27.021E-03
			-81.00		29.337E-03
			-78.00		32.685E-03
			-75.00		34.700E-03
			-72.00		38.266E-03
			-69.00		42.500E-03
			-66.00		48.648E-03
			-63.00		56.563E-03
			-60.00		70.215E-03
			-57.00		100.28E-03
			-54.00		192.24E-03
			-51.00		445.28E-03
			-48.00		603.57E-03
			-45.00		637.17E-03
			-42.00		650.01E-03
			-39.00		656.54E-03
			-36.00		661.38E-03
			-33.00		663.66E-03
			-30.00		666.80E-03
			-27.00		667.64E-03
			-24.00		666.86E-03
			-21.00		666.18E-03
			-18.00		673.06E-03
			-15.00		670.98E-03
			-12.00		671.35E-03
			-9.00		670.79E-03
			-6.00		668.21E-03
			0.00		668.89E-03
			6.00		673.28E-03
			9.00		671.86E-03
			12.00		670.21E-03
			15.00		668.16E-03
			18.00		664.05E-03
			21.00		663.97E-03
			24.00		660.12E-03
			27.00		661.54E-03
			30.00		656.66E-03
			33.00		653.58E-03
			36.00		650.08E-03
			39.00		636.59E-03
			42.00		617.24E-03
			45.00		548.55E-03
			48.00		294.96E-03
			51.00		132.35E-03
			54.00		80.734E-03
			57.00		61.892E-03
			60.00		51.956E-03
			63.00		45.322E-03
			66.00		40.625E-03
			69.00		36.244E-03
			72.00		32.914E-03
			75.00		29.847E-03
			78.00		26.840E-03
			81.00		24.839E-03
			84.00		23.367E-03
			87.00		21.403E-03
			90.00		19.993E-03
			93.00		18.119E-03
			96.00		17.574E-03
			99.00		15.443E-03
			102.00		13.835E-03
			105.00		12.925E-03
			108.00		12.456E-03
			111.00		11.334E-03
			114.00		10.802E-03
			117.00		9.8314E-03
			120.00		9.2508E-03
			123.00		8.8269E-03
			126.00		7.9555E-03
		END_DATA
	END_SCAN  11
	BEGIN_SCAN  12
		TASK_NAME=MODE_INTERVAL
		PROGRAM=BeamAdjust 1.2
		MEAS_DATE=07-Oct-2010 14:16:46
		LINAC=A4
		MODALITY=X
		INPLANE_AXIS_DIR=TARGET_GUN
		CROSSPLANE_AXIS_DIR=LEFT_RIGHT
		DEPTH_AXIS_DIR=UP_DOWN
		ENERGY=6.00
		SSD=950.00
		WEDGE=None
		FIELD_INPLANE=100.00
		FIELD_CROSSPLANE=100.00
		FIELD_TYPE=RECTANGULAR
		GANTRY=0.00
		GANTRY_UPRIGHT_POSITION=0
		GANTRY_ROTATION=CW
		COLL_ANGLE=90.00
		COLL_OFFSET_INPLANE=0.00
		COLL_OFFSET_CROSSPLANE=0.00
		SCAN_DEVICE=STARCHECK
		ELECTROMETER=2D_ARRAY_INTERFACE
		DETECTOR=STARCHECK
		SCAN_CURVETYPE=INPLANE_PROFILE
		SCAN_DEPTH=0.00
		SCAN_OFFAXIS_CROSSPLANE=50.00
		SCAN_ANGLE=0.00
		SCAN_DIAGONAL=NOT_DIAGONAL
		MEAS_PRESET=TIME_PRESET
		MEAS_TIME=10.000
		MEAS_UNIT=GY
		PRESSURE=1013.25
		TEMPERATURE=20.00
		NORM_TEMPERATURE=20.00
		CORRECTION_FACTOR=1.0000
		CORRECTIONS=AIR_DENSITY_CORR;
		BEGIN_DATA
			-30.00		327.48E-03
			-15.00		336.21E-03
			15.00		343.24E-03
			30.00		343.60E-03
		END_DATA
	END_SCAN  12
	BEGIN_SCAN  13
		TASK_NAME=MODE_INTERVAL
		PROGRAM=BeamAdjust 1.2
		MEAS_DATE=07-Oct-2010 14:16:46
		LINAC=A4
		MODALITY=X
		INPLANE_AXIS_DIR=TARGET_GUN
		CROSSPLANE_AXIS_DIR=LEFT_RIGHT
		DEPTH_AXIS_DIR=UP_DOWN
		ENERGY=6.00
		SSD=950.00
		WEDGE=None
		FIELD_INPLANE=100.00
		FIELD_CROSSPLANE=100.00
		FIELD_TYPE=RECTANGULAR
		GANTRY=0.00
		GANTRY_UPRIGHT_POSITION=0
		GANTRY_ROTATION=CW
		COLL_ANGLE=90.00
		COLL_OFFSET_INPLANE=0.00
		COLL_OFFSET_CROSSPLANE=0.00
		SCAN_DEVICE=STARCHECK
		ELECTROMETER=2D_ARRAY_INTERFACE
		DETECTOR=STARCHECK
		SCAN_CURVETYPE=INPLANE_PROFILE
		SCAN_DEPTH=0.00
		SCAN_OFFAXIS_CROSSPLANE=100.00
		SCAN_ANGLE=0.00
		SCAN_DIAGONAL=NOT_DIAGONAL
		MEAS_PRESET=TIME_PRESET
		MEAS_TIME=10.000
		MEAS_UNIT=GY
		PRESSURE=1013.25
		TEMPERATURE=20.00
		NORM_TEMPERATURE=20.00
		CORRECTION_FACTOR=1.0000
		CORRECTIONS=AIR_DENSITY_CORR;
		BEGIN_DATA
			-60.00		8.1584E-03
			-30.00		10.505E-03
			30.00		10.336E-03
			60.00		7.5908E-03
		END_DATA
	END_SCAN  13
	BEGIN_SCAN  14
		TASK_NAME=MODE_INTERVAL
		PROGRAM=BeamAdjust 1.2
		MEAS_DATE=07-Oct-2010 14:16:46
		LINAC=A4
		MODALITY=X
		INPLANE_AXIS_DIR=TARGET_GUN
		CROSSPLANE_AXIS_DIR=LEFT_RIGHT
		DEPTH_AXIS_DIR=UP_DOWN
		ENERGY=6.00
		SSD=950.00
		WEDGE=None
		FIELD_INPLANE=100.00
		FIELD_CROSSPLANE=100.00
		FIELD_TYPE=RECTANGULAR
		GANTRY=0.00
		GANTRY_UPRIGHT_POSITION=0
		GANTRY_ROTATION=CW
		COLL_ANGLE=90.00
		COLL_OFFSET_INPLANE=0.00
		COLL_OFFSET_CROSSPLANE=0.00
		SCAN_DEVICE=STARCHECK
		ELECTROMETER=2D_ARRAY_INTERFACE
		DETECTOR=STARCHECK
		SCAN_CURVETYPE=INPLANE_PROFILE
		SCAN_DEPTH=0.00
		SCAN_OFFAXIS_CROSSPLANE=130.00
		SCAN_ANGLE=0.00
		SCAN_DIAGONAL=NOT_DIAGONAL
		MEAS_PRESET=TIME_PRESET
		MEAS_TIME=10.000
		MEAS_UNIT=GY
		PRESSURE=1013.25
		TEMPERATURE=20.00
		NORM_TEMPERATURE=20.00
		CORRECTION_FACTOR=1.0000
		CORRECTIONS=AIR_DENSITY_CORR;
		BEGIN_DATA
			-130.00		1.9135E-03
			-125.00		2.4692E-03
			-120.00		2.3457E-03
			-115.00		2.9123E-03
			-110.00		2.7939E-03
			-105.00		2.8950E-03
			-100.00		3.2750E-03
			-95.00		3.0745E-03
			-90.00		2.7324E-03
			-85.00		3.7060E-03
			-80.00		3.5073E-03
			-75.00		3.7430E-03
			-70.00		3.7922E-03
			-65.00		4.3834E-03
			-60.00		4.6402E-03
			-55.00		4.4078E-03
			-50.00		4.3107E-03
			-45.00		5.0116E-03
			-40.00		5.3441E-03
			-35.00		5.4903E-03
			-30.00		5.5740E-03
			-25.00		5.3751E-03
			-20.00		5.3827E-03
			-15.00		5.1701E-03
			-10.00		4.7594E-03
			-5.00		5.6142E-03
			0.00		5.7716E-03
			5.00		5.7562E-03
			10.00		5.3949E-03
			15.00		5.2220E-03
			20.00		5.5096E-03
			25.00		5.6793E-03
			30.00		5.1261E-03
			35.00		5.5040E-03
			40.00		5.8578E-03
			45.00		5.0003E-03
			50.00		4.9799E-03
			55.00		4.8845E-03
			60.00		4.4615E-03
			65.00		3.8845E-03
			70.00		3.8845E-03
			75.00		4.3151E-03
			80.00		3.8581E-03
			85.00		3.8888E-03
			90.00		3.7863E-03
			95.00		3.4617E-03
			100.00		3.6982E-03
			105.00		2.9313E-03
			110.00		2.7270E-03
			115.00		2.7049E-03
			120.00		2.5811E-03
			125.00		2.1577E-03
			130.00		1.9603E-03
		END_DATA
	END_SCAN  14
	BEGIN_SCAN  15
		TASK_NAME=MODE_INTERVAL
		PROGRAM=BeamAdjust 1.2
		MEAS_DATE=07-Oct-2010 14:16:46
		LINAC=A4
		MODALITY=X
		INPLANE_AXIS_DIR=TARGET_GUN
		CROSSPLANE_AXIS_DIR=LEFT_RIGHT
		DEPTH_AXIS_DIR=UP_DOWN
		ENERGY=6.00
		SSD=950.00
		WEDGE=None
		FIELD_INPLANE=100.00
		FIELD_CROSSPLANE=100.00
		FIELD_TYPE=RECTANGULAR
		GANTRY=0.00
		GANTRY_UPRIGHT_POSITION=0
		GANTRY_ROTATION=CW
		COLL_ANGLE=90.00
		COLL_OFFSET_INPLANE=0.00
		COLL_OFFSET_CROSSPLANE=0.00
		SCAN_DEVICE=STARCHECK
		ELECTROMETER=2D_ARRAY_INTERFACE
		DETECTOR=STARCHECK
		SCAN_CURVETYPE=INPLANE_PROFILE
		SCAN_DEPTH=0.00
		SCAN_OFFAXIS_CROSSPLANE=0.00
		SCAN_ANGLE=0.00
		SCAN_DIAGONAL=FIRST_DIAGONAL
		MEAS_PRESET=TIME_PRESET
		MEAS_TIME=10.000
		MEAS_UNIT=GY
		PRESSURE=1013.25
		TEMPERATURE=20.00
		NORM_TEMPERATURE=20.00
		CORRECTION_FACTOR=1.0000
		CORRECTIONS=AIR_DENSITY_CORR;
		BEGIN_DATA
			-172.40		2.7128E-03
			-169.40		3.0656E-03
			-166.40		4.0551E-03
			-163.40		3.9480E-03
			-160.40		3.9430E-03
			-157.40		4.0707E-03
			-154.40		4.0147E-03
			-151.40		4.0358E-03
			-148.40		4.7217E-03
			-145.40		5.3505E-03
			-142.40		5.6701E-03
			-139.40		6.0767E-03
			-136.40		6.3312E-03
			-133.40		6.9154E-03
			-130.40		7.3193E-03
			-127.40		7.7591E-03
			-124.40		8.5318E-03
			-121.40		9.2351E-03
			-118.40		10.129E-03
			-115.40		10.867E-03
			-112.40		11.661E-03
			-109.40		12.937E-03
			-106.40		13.948E-03
			-103.40		14.760E-03
			-100.40		16.056E-03
			-97.40		18.478E-03
			-94.40		20.549E-03
			-91.40		22.996E-03
			-88.40		25.990E-03
			-85.40		29.302E-03
			-82.40		35.059E-03
			-79.40		42.370E-03
			-76.40		59.514E-03
			-73.40		119.36E-03
			-70.40		294.22E-03
			-67.40		489.17E-03
			-64.40		581.63E-03
			-61.40		614.82E-03
			-58.40		630.53E-03
			-55.40		640.46E-03
			-52.40		646.53E-03
			-49.40		651.22E-03
			-46.40		653.52E-03
			-43.40		656.04E-03
			-40.40		659.10E-03
			-37.40		663.29E-03
			-34.40		662.87E-03
			-31.40		664.46E-03
			-28.40		662.99E-03
			-25.40		665.84E-03
			-22.40		666.23E-03
			-19.40		667.31E-03
			-16.40		670.66E-03
			-13.40		672.70E-03
			0.00		668.89E-03
			13.40		671.99E-03
			16.40		667.54E-03
			19.40		667.15E-03
			22.40		666.13E-03
			25.40		665.50E-03
			28.40		663.75E-03
			31.40		661.00E-03
			34.40		657.81E-03
			37.40		660.15E-03
			40.40		657.21E-03
			43.40		653.80E-03
			46.40		651.53E-03
			49.40		644.96E-03
			52.40		639.06E-03
			55.40		623.81E-03
			58.40		601.98E-03
			61.40		545.55E-03
			64.40		412.22E-03
			67.40		226.75E-03
			70.40		95.541E-03
			73.40		54.029E-03
			76.40		39.935E-03
			79.40		33.138E-03
			82.40		28.519E-03
			85.40		24.877E-03
			88.40		22.738E-03
			91.40		19.956E-03
			94.40		18.391E-03
			97.40		16.456E-03
			100.40		15.084E-03
			103.40		14.210E-03
			106.40		12.849E-03
			109.40		12.369E-03
			112.40		10.186E-03
			115.40		9.8347E-03
			118.40		8.8634E-03
			121.40		8.2953E-03
			124.40		7.9076E-03
			127.40		7.4452E-03
			130.40		7.1310E-03
			133.40		5.7738E-03
			136.40		4.9012E-03
			139.40		4.3516E-03
			142.40		4.2596E-03
			145.40		3.9778E-03
			148.40		4.3529E-03
			151.40		3.8634E-03
			154.40		3.6051E-03
			157.40		3.4940E-03
			160.40		2.6032E-03
			163.40		2.7703E-03
			166.40		2.9004E-03
			169.40		2.6370E-03
			172.40		2.6459E-03
		END_DATA
	END_SCAN  15
	BEGIN_SCAN  16
		TASK_NAME=MODE_INTERVAL
		PROGRAM=BeamAdjust 1.2
		MEAS_DATE=07-Oct-2010 14:16:46
		LINAC=A4
		MODALITY=X
		INPLANE_AXIS_DIR=GUN_TARGET
		CROSSPLANE_AXIS_DIR=LEFT_RIGHT
		DEPTH_AXIS_DIR=UP_DOWN
		ENERGY=6.00
		SSD=950.00
		WEDGE=None
		FIELD_INPLANE=100.00
		FIELD_CROSSPLANE=100.00
		FIELD_TYPE=RECTANGULAR
		GANTRY=0.00
		GANTRY_UPRIGHT_POSITION=0
		GANTRY_ROTATION=CW
		COLL_ANGLE=90.00
		COLL_OFFSET_INPLANE=0.00
		COLL_OFFSET_CROSSPLANE=0.00
		SCAN_DEVICE=STARCHECK
		ELECTROMETER=2D_ARRAY_INTERFACE
		DETECTOR=STARCHECK
		SCAN_CURVETYPE=INPLANE_PROFILE
		SCAN_DEPTH=0.00
		SCAN_OFFAXIS_CROSSPLANE=0.00
		SCAN_ANGLE=0.00
		SCAN_DIAGONAL=SECOND_DIAGONAL
		MEAS_PRESET=TIME_PRESET
		MEAS_TIME=10.000
		MEAS_UNIT=GY
		PRESSURE=1013.25
		TEMPERATURE=20.00
		NORM_TEMPERATURE=20.00
		CORRECTION_FACTOR=1.0000
		CORRECTIONS=AIR_DENSITY_CORR;
		BEGIN_DATA
			-172.40		2.6421E-03
			-169.40		2.7747E-03
			-166.40		2.9591E-03
			-163.40		2.8070E-03
			-160.40		3.2938E-03
			-157.40		3.5692E-03
			-154.40		3.8358E-03
			-151.40		4.3687E-03
			-148.40		4.5693E-03
			-145.40		4.6627E-03
			-142.40		5.8799E-03
			-139.40		5.5291E-03
			-136.40		5.8118E-03
			-133.40		6.6882E-03
			-130.40		7.2402E-03
			-127.40		7.9822E-03
			-124.40		8.6453E-03
			-121.40		9.4195E-03
			-118.40		9.8148E-03
			-115.40		10.338E-03
			-112.40		11.040E-03
			-109.40		12.301E-03
			-106.40		13.395E-03
			-103.40		14.564E-03
			-100.40		17.046E-03
			-97.40		17.773E-03
			-94.40		19.519E-03
			-91.40		21.971E-03
			-88.40		24.226E-03
			-85.40		27.696E-03
			-82.40		32.229E-03
			-79.40		39.360E-03
			-76.40		52.641E-03
			-73.40		92.412E-03
			-70.40		231.98E-03
			-67.40		438.47E-03
			-64.40		564.53E-03
			-61.40		612.11E-03
			-58.40		634.17E-03
			-55.40		642.81E-03
			-52.40		652.76E-03
			-49.40		656.76E-03
			-46.40		659.70E-03
			-43.40		662.36E-03
			-40.40		664.04E-03
			-37.40		667.23E-03
			-34.40		666.38E-03
			-31.40		667.10E-03
			-28.40		669.30E-03
			-25.40		668.12E-03
			-22.40		666.31E-03
			-19.40		669.92E-03
			-16.40		672.11E-03
			-13.40		673.93E-03
			0.00		668.89E-03
			13.40		671.28E-03
			16.40		668.05E-03
			19.40		664.93E-03
			22.40		662.36E-03
			25.40		662.04E-03
			28.40		660.85E-03
			31.40		659.19E-03
			34.40		656.06E-03
			37.40		655.47E-03
			40.40		653.70E-03
			43.40		651.18E-03
			46.40		648.90E-03
			49.40		644.55E-03
			52.40		634.42E-03
			55.40		622.91E-03
			58.40		605.55E-03
			61.40		557.02E-03
			64.40		437.56E-03
			67.40		249.50E-03
			70.40		104.46E-03
			73.40		56.241E-03
			76.40		40.762E-03
			79.40		33.462E-03
			82.40		29.541E-03
			85.40		26.063E-03
			88.40		23.160E-03
			91.40		21.591E-03
			94.40		18.820E-03
			97.40		17.252E-03
			100.40		14.863E-03
			103.40		13.607E-03
			106.40		12.930E-03
			109.40		11.593E-03
			112.40		10.880E-03
			115.40		9.8692E-03
			118.40		9.1682E-03
			121.40		8.2712E-03
			124.40		7.5620E-03
			127.40		6.9556E-03
			130.40		7.1173E-03
			133.40		6.5357E-03
			136.40		5.6510E-03
			139.40		5.9461E-03
			142.40		5.2724E-03
			145.40		5.1462E-03
			148.40		4.6607E-03
			151.40		4.1765E-03
			154.40		4.0799E-03
			157.40		3.9464E-03
			160.40		3.8386E-03
			163.40		3.9064E-03
			166.40		3.4763E-03
			169.40		2.7244E-03
			172.40		2.6392E-03
		END_DATA
	END_SCAN  16
END_SCAN_DATA
