BEGIN_SCAN_DATA
	FORMAT=CC-Export V1.9                  
	FILE_CREATION_DATE=07-Oct-2010 14:16:20
	LAST_MODIFIED=07-Oct-2010 14:16:20
	BEGIN_SCAN  1
		TASK_NAME=MODE_INTERVAL
		PROGRAM=BeamAdjust 1.2
		MEAS_DATE=07-Oct-2010 14:16:20
		LINAC=A4
		MODALITY=X
		INPLANE_AXIS_DIR=TARGET_GUN
		CROSSPLANE_AXIS_DIR=LEFT_RIGHT
		DEPTH_AXIS_DIR=UP_DOWN
		ENERGY=6.00
		SSD=950.00
		WEDGE=None
		FIELD_INPLANE=100.00
		FIELD_CROSSPLANE=100.00
		FIELD_TYPE=RECTANGULAR
		GANTRY=0.00
		GANTRY_UPRIGHT_POSITION=0
		GANTRY_ROTATION=CW
		COLL_ANGLE=90.00
		COLL_OFFSET_INPLANE=0.00
		COLL_OFFSET_CROSSPLANE=0.00
		SCAN_DEVICE=STARCHECK
		ELECTROMETER=2D_ARRAY_INTERFACE
		DETECTOR=STARCHECK
		SCAN_CURVETYPE=CROSSPLANE_PROFILE
		SCAN_DEPTH=0.00
		SCAN_OFFAXIS_INPLANE=-130.00
		SCAN_ANGLE=0.00
		SCAN_DIAGONAL=NOT_DIAGONAL
		MEAS_PRESET=TIME_PRESET
		MEAS_TIME=10.000
		MEAS_UNIT=GY
		PRESSURE=1013.25
		TEMPERATURE=20.00
		NORM_TEMPERATURE=20.00
		CORRECTION_FACTOR=1.0000
		CORRECTIONS=AIR_DENSITY_CORR;
		BEGIN_DATA
			-130.00		2.4569E-03
			-80.00		4.3181E-03
			-40.00		7.0975E-03
			40.00		6.8166E-03
			80.00		3.9427E-03
			130.00		1.7684E-03
		END_DATA
	END_SCAN  1
	BEGIN_SCAN  2
		TASK_NAME=MODE_INTERVAL
		PROGRAM=BeamAdjust 1.2
		MEAS_DATE=07-Oct-2010 14:16:20
		LINAC=A4
		MODALITY=X
		INPLANE_AXIS_DIR=TARGET_GUN
		CROSSPLANE_AXIS_DIR=LEFT_RIGHT
		DEPTH_AXIS_DIR=UP_DOWN
		ENERGY=6.00
		SSD=950.00
		WEDGE=None
		FIELD_INPLANE=100.00
		FIELD_CROSSPLANE=100.00
		FIELD_TYPE=RECTANGULAR
		GANTRY=0.00
		GANTRY_UPRIGHT_POSITION=0
		GANTRY_ROTATION=CW
		COLL_ANGLE=90.00
		COLL_OFFSET_INPLANE=0.00
		COLL_OFFSET_CROSSPLANE=0.00
		SCAN_DEVICE=STARCHECK
		ELECTROMETER=2D_ARRAY_INTERFACE
		DETECTOR=STARCHECK
		SCAN_CURVETYPE=CROSSPLANE_PROFILE
		SCAN_DEPTH=0.00
		SCAN_OFFAXIS_INPLANE=-100.00
		SCAN_ANGLE=0.00
		SCAN_DIAGONAL=NOT_DIAGONAL
		MEAS_PRESET=TIME_PRESET
		MEAS_TIME=10.000
		MEAS_UNIT=GY
		PRESSURE=1013.25
		TEMPERATURE=20.00
		NORM_TEMPERATURE=20.00
		CORRECTION_FACTOR=1.0000
		CORRECTIONS=AIR_DENSITY_CORR;
		BEGIN_DATA
			-60.00		10.644E-03
			-30.00		15.154E-03
			30.00		16.106E-03
			60.00		10.573E-03
		END_DATA
	END_SCAN  2
	BEGIN_SCAN  3
		TASK_NAME=MODE_INTERVAL
		PROGRAM=BeamAdjust 1.2
		MEAS_DATE=07-Oct-2010 14:16:20
		LINAC=A4
		MODALITY=X
		INPLANE_AXIS_DIR=TARGET_GUN
		CROSSPLANE_AXIS_DIR=LEFT_RIGHT
		DEPTH_AXIS_DIR=UP_DOWN
		ENERGY=6.00
		SSD=950.00
		WEDGE=None
		FIELD_INPLANE=100.00
		FIELD_CROSSPLANE=100.00
		FIELD_TYPE=RECTANGULAR
		GANTRY=0.00
		GANTRY_UPRIGHT_POSITION=0
		GANTRY_ROTATION=CW
		COLL_ANGLE=90.00
		COLL_OFFSET_INPLANE=0.00
		COLL_OFFSET_CROSSPLANE=0.00
		SCAN_DEVICE=STARCHECK
		ELECTROMETER=2D_ARRAY_INTERFACE
		DETECTOR=STARCHECK
		SCAN_CURVETYPE=CROSSPLANE_PROFILE
		SCAN_DEPTH=0.00
		SCAN_OFFAXIS_INPLANE=-50.00
		SCAN_ANGLE=0.00
		SCAN_DIAGONAL=NOT_DIAGONAL
		MEAS_PRESET=TIME_PRESET
		MEAS_TIME=10.000
		MEAS_UNIT=GY
		PRESSURE=1013.25
		TEMPERATURE=20.00
		NORM_TEMPERATURE=20.00
		CORRECTION_FACTOR=1.0000
		CORRECTIONS=AIR_DENSITY_CORR;
		BEGIN_DATA
			-30.00		525.34E-03
			-15.00		492.55E-03
			15.00		517.95E-03
			30.00		523.16E-03
		END_DATA
	END_SCAN  3
	BEGIN_SCAN  4
		TASK_NAME=MODE_INTERVAL
		PROGRAM=BeamAdjust 1.2
		MEAS_DATE=07-Oct-2010 14:16:20
		LINAC=A4
		MODALITY=X
		INPLANE_AXIS_DIR=TARGET_GUN
		CROSSPLANE_AXIS_DIR=LEFT_RIGHT
		DEPTH_AXIS_DIR=UP_DOWN
		ENERGY=6.00
		SSD=950.00
		WEDGE=None
		FIELD_INPLANE=100.00
		FIELD_CROSSPLANE=100.00
		FIELD_TYPE=RECTANGULAR
		GANTRY=0.00
		GANTRY_UPRIGHT_POSITION=0
		GANTRY_ROTATION=CW
		COLL_ANGLE=90.00
		COLL_OFFSET_INPLANE=0.00
		COLL_OFFSET_CROSSPLANE=0.00
		SCAN_DEVICE=STARCHECK
		ELECTROMETER=2D_ARRAY_INTERFACE
		DETECTOR=STARCHECK
		SCAN_CURVETYPE=CROSSPLANE_PROFILE
		SCAN_DEPTH=0.00
		SCAN_OFFAXIS_INPLANE=0.00
		SCAN_ANGLE=0.00
		SCAN_DIAGONAL=NOT_DIAGONAL
		MEAS_PRESET=TIME_PRESET
		MEAS_TIME=10.000
		MEAS_UNIT=GY
		PRESSURE=1013.25
		TEMPERATURE=20.00
		NORM_TEMPERATURE=20.00
		CORRECTION_FACTOR=1.0000
		CORRECTIONS=AIR_DENSITY_CORR;
		BEGIN_DATA
			-126.00		7.0752E-03
			-123.00		7.6145E-03
			-120.00		7.8079E-03
			-117.00		8.5956E-03
			-114.00		8.7820E-03
			-111.00		9.3957E-03
			-108.00		10.429E-03
			-105.00		10.917E-03
			-102.00		11.766E-03
			-99.00		12.908E-03
			-96.00		13.833E-03
			-93.00		15.125E-03
			-90.00		16.581E-03
			-87.00		17.931E-03
			-84.00		20.805E-03
			-81.00		21.688E-03
			-78.00		23.854E-03
			-75.00		26.884E-03
			-72.00		29.810E-03
			-69.00		33.916E-03
			-66.00		39.273E-03
			-63.00		44.999E-03
			-60.00		54.797E-03
			-57.00		72.439E-03
			-54.00		114.16E-03
			-51.00		291.71E-03
			-48.00		555.22E-03
			-45.00		616.83E-03
			-42.00		636.61E-03
			-39.00		648.55E-03
			-36.00		654.65E-03
			-33.00		654.99E-03
			-30.00		657.09E-03
			-27.00		659.77E-03
			-24.00		662.04E-03
			-21.00		661.85E-03
			-18.00		667.47E-03
			-15.00		668.08E-03
			-12.00		667.51E-03
			-9.00		670.09E-03
			-6.00		669.41E-03
			0.00		668.80E-03
			6.00		671.93E-03
			9.00		671.39E-03
			12.00		668.10E-03
			15.00		667.03E-03
			18.00		666.54E-03
			21.00		664.52E-03
			24.00		661.20E-03
			27.00		664.88E-03
			30.00		663.21E-03
			33.00		661.00E-03
			36.00		657.34E-03
			39.00		651.26E-03
			42.00		639.93E-03
			45.00		614.93E-03
			48.00		525.32E-03
			51.00		232.11E-03
			54.00		101.69E-03
			57.00		68.006E-03
			60.00		52.955E-03
			63.00		44.089E-03
			66.00		37.840E-03
			69.00		33.184E-03
			72.00		29.710E-03
			75.00		26.540E-03
			78.00		23.866E-03
			81.00		21.639E-03
			84.00		19.801E-03
			87.00		17.774E-03
			90.00		16.904E-03
			93.00		15.775E-03
			96.00		13.481E-03
			99.00		12.651E-03
			102.00		11.557E-03
			105.00		10.871E-03
			108.00		10.257E-03
			111.00		8.9116E-03
			114.00		8.4930E-03
			117.00		7.7492E-03
			120.00		6.9518E-03
			123.00		6.9071E-03
			126.00		6.7852E-03
		END_DATA
	END_SCAN  4
	BEGIN_SCAN  5
		TASK_NAME=MODE_INTERVAL
		PROGRAM=BeamAdjust 1.2
		MEAS_DATE=07-Oct-2010 14:16:20
		LINAC=A4
		MODALITY=X
		INPLANE_AXIS_DIR=TARGET_GUN
		CROSSPLANE_AXIS_DIR=LEFT_RIGHT
		DEPTH_AXIS_DIR=UP_DOWN
		ENERGY=6.00
		SSD=950.00
		WEDGE=None
		FIELD_INPLANE=100.00
		FIELD_CROSSPLANE=100.00
		FIELD_TYPE=RECTANGULAR
		GANTRY=0.00
		GANTRY_UPRIGHT_POSITION=0
		GANTRY_ROTATION=CW
		COLL_ANGLE=90.00
		COLL_OFFSET_INPLANE=0.00
		COLL_OFFSET_CROSSPLANE=0.00
		SCAN_DEVICE=STARCHECK
		ELECTROMETER=2D_ARRAY_INTERFACE
		DETECTOR=STARCHECK
		SCAN_CURVETYPE=CROSSPLANE_PROFILE
		SCAN_DEPTH=0.00
		SCAN_OFFAXIS_INPLANE=50.00
		SCAN_ANGLE=0.00
		SCAN_DIAGONAL=NOT_DIAGONAL
		MEAS_PRESET=TIME_PRESET
		MEAS_TIME=10.000
		MEAS_UNIT=GY
		PRESSURE=1013.25
		TEMPERATURE=20.00
		NORM_TEMPERATURE=20.00
		CORRECTION_FACTOR=1.0000
		CORRECTIONS=AIR_DENSITY_CORR;
		BEGIN_DATA
			-30.00		160.12E-03
			-15.00		166.39E-03
			15.00		148.20E-03
			30.00		153.96E-03
		END_DATA
	END_SCAN  5
	BEGIN_SCAN  6
		TASK_NAME=MODE_INTERVAL
		PROGRAM=BeamAdjust 1.2
		MEAS_DATE=07-Oct-2010 14:16:20
		LINAC=A4
		MODALITY=X
		INPLANE_AXIS_DIR=TARGET_GUN
		CROSSPLANE_AXIS_DIR=LEFT_RIGHT
		DEPTH_AXIS_DIR=UP_DOWN
		ENERGY=6.00
		SSD=950.00
		WEDGE=None
		FIELD_INPLANE=100.00
		FIELD_CROSSPLANE=100.00
		FIELD_TYPE=RECTANGULAR
		GANTRY=0.00
		GANTRY_UPRIGHT_POSITION=0
		GANTRY_ROTATION=CW
		COLL_ANGLE=90.00
		COLL_OFFSET_INPLANE=0.00
		COLL_OFFSET_CROSSPLANE=0.00
		SCAN_DEVICE=STARCHECK
		ELECTROMETER=2D_ARRAY_INTERFACE
		DETECTOR=STARCHECK
		SCAN_CURVETYPE=CROSSPLANE_PROFILE
		SCAN_DEPTH=0.00
		SCAN_OFFAXIS_INPLANE=100.00
		SCAN_ANGLE=0.00
		SCAN_DIAGONAL=NOT_DIAGONAL
		MEAS_PRESET=TIME_PRESET
		MEAS_TIME=10.000
		MEAS_UNIT=GY
		PRESSURE=1013.25
		TEMPERATURE=20.00
		NORM_TEMPERATURE=20.00
		CORRECTION_FACTOR=1.0000
		CORRECTIONS=AIR_DENSITY_CORR;
		BEGIN_DATA
			-60.00		9.6258E-03
			-30.00		14.585E-03
			30.00		14.217E-03
			60.00		8.6794E-03
		END_DATA
	END_SCAN  6
	BEGIN_SCAN  7
		TASK_NAME=MODE_INTERVAL
		PROGRAM=BeamAdjust 1.2
		MEAS_DATE=07-Oct-2010 14:16:20
		LINAC=A4
		MODALITY=X
		INPLANE_AXIS_DIR=TARGET_GUN
		CROSSPLANE_AXIS_DIR=LEFT_RIGHT
		DEPTH_AXIS_DIR=UP_DOWN
		ENERGY=6.00
		SSD=950.00
		WEDGE=None
		FIELD_INPLANE=100.00
		FIELD_CROSSPLANE=100.00
		FIELD_TYPE=RECTANGULAR
		GANTRY=0.00
		GANTRY_UPRIGHT_POSITION=0
		GANTRY_ROTATION=CW
		COLL_ANGLE=90.00
		COLL_OFFSET_INPLANE=0.00
		COLL_OFFSET_CROSSPLANE=0.00
		SCAN_DEVICE=STARCHECK
		ELECTROMETER=2D_ARRAY_INTERFACE
		DETECTOR=STARCHECK
		SCAN_CURVETYPE=CROSSPLANE_PROFILE
		SCAN_DEPTH=0.00
		SCAN_OFFAXIS_INPLANE=130.00
		SCAN_ANGLE=0.00
		SCAN_DIAGONAL=NOT_DIAGONAL
		MEAS_PRESET=TIME_PRESET
		MEAS_TIME=10.000
		MEAS_UNIT=GY
		PRESSURE=1013.25
		TEMPERATURE=20.00
		NORM_TEMPERATURE=20.00
		CORRECTION_FACTOR=1.0000
		CORRECTIONS=AIR_DENSITY_CORR;
		BEGIN_DATA
			-130.00		1.9988E-03
			-80.00		4.0080E-03
			-40.00		7.2163E-03
			40.00		6.9032E-03
			80.00		4.2232E-03
			130.00		2.2087E-03
		END_DATA
	END_SCAN  7
	BEGIN_SCAN  8
		TASK_NAME=MODE_INTERVAL
		PROGRAM=BeamAdjust 1.2
		MEAS_DATE=07-Oct-2010 14:16:20
		LINAC=A4
		MODALITY=X
		INPLANE_AXIS_DIR=TARGET_GUN
		CROSSPLANE_AXIS_DIR=LEFT_RIGHT
		DEPTH_AXIS_DIR=UP_DOWN
		ENERGY=6.00
		SSD=950.00
		WEDGE=None
		FIELD_INPLANE=100.00
		FIELD_CROSSPLANE=100.00
		FIELD_TYPE=RECTANGULAR
		GANTRY=0.00
		GANTRY_UPRIGHT_POSITION=0
		GANTRY_ROTATION=CW
		COLL_ANGLE=90.00
		COLL_OFFSET_INPLANE=0.00
		COLL_OFFSET_CROSSPLANE=0.00
		SCAN_DEVICE=STARCHECK
		ELECTROMETER=2D_ARRAY_INTERFACE
		DETECTOR=STARCHECK
		SCAN_CURVETYPE=INPLANE_PROFILE
		SCAN_DEPTH=0.00
		SCAN_OFFAXIS_CROSSPLANE=-130.00
		SCAN_ANGLE=0.00
		SCAN_DIAGONAL=NOT_DIAGONAL
		MEAS_PRESET=TIME_PRESET
		MEAS_TIME=10.000
		MEAS_UNIT=GY
		PRESSURE=1013.25
		TEMPERATURE=20.00
		NORM_TEMPERATURE=20.00
		CORRECTION_FACTOR=1.0000
		CORRECTIONS=AIR_DENSITY_CORR;
		BEGIN_DATA
			-130.00		2.4569E-03
			-125.00		2.7184E-03
			-120.00		3.0682E-03
			-115.00		3.3790E-03
			-110.00		3.4358E-03
			-105.00		3.7185E-03
			-100.00		4.1313E-03
			-95.00		4.5001E-03
			-90.00		4.6511E-03
			-85.00		4.8229E-03
			-80.00		4.5190E-03
			-75.00		4.9114E-03
			-70.00		4.7948E-03
			-65.00		5.0908E-03
			-60.00		5.2588E-03
			-55.00		6.0104E-03
			-50.00		4.4494E-03
			-45.00		4.5928E-03
			-40.00		4.9566E-03
			-35.00		5.4987E-03
			-30.00		5.5023E-03
			-25.00		5.1327E-03
			-20.00		5.3136E-03
			-15.00		5.6531E-03
			-10.00		5.3629E-03
			-5.00		6.4363E-03
			0.00		6.1526E-03
			5.00		6.5814E-03
			10.00		5.8107E-03
			15.00		5.6903E-03
			20.00		5.9084E-03
			25.00		5.2250E-03
			30.00		5.5991E-03
			35.00		5.2766E-03
			40.00		4.8475E-03
			45.00		4.7103E-03
			50.00		4.7974E-03
			55.00		4.7663E-03
			60.00		4.3713E-03
			65.00		3.6951E-03
			70.00		3.7443E-03
			75.00		3.7102E-03
			80.00		3.4571E-03
			85.00		3.4168E-03
			90.00		3.1742E-03
			95.00		3.1261E-03
			100.00		3.0175E-03
			105.00		2.5249E-03
			110.00		2.5589E-03
			115.00		2.4836E-03
			120.00		2.4620E-03
			125.00		3.0196E-03
			130.00		1.9988E-03
		END_DATA
	END_SCAN  8
	BEGIN_SCAN  9
		TASK_NAME=MODE_INTERVAL
		PROGRAM=BeamAdjust 1.2
		MEAS_DATE=07-Oct-2010 14:16:20
		LINAC=A4
		MODALITY=X
		INPLANE_AXIS_DIR=TARGET_GUN
		CROSSPLANE_AXIS_DIR=LEFT_RIGHT
		DEPTH_AXIS_DIR=UP_DOWN
		ENERGY=6.00
		SSD=950.00
		WEDGE=None
		FIELD_INPLANE=100.00
		FIELD_CROSSPLANE=100.00
		FIELD_TYPE=RECTANGULAR
		GANTRY=0.00
		GANTRY_UPRIGHT_POSITION=0
		GANTRY_ROTATION=CW
		COLL_ANGLE=90.00
		COLL_OFFSET_INPLANE=0.00
		COLL_OFFSET_CROSSPLANE=0.00
		SCAN_DEVICE=STARCHECK
		ELECTROMETER=2D_ARRAY_INTERFACE
		DETECTOR=STARCHECK
		SCAN_CURVETYPE=INPLANE_PROFILE
		SCAN_DEPTH=0.00
		SCAN_OFFAXIS_CROSSPLANE=-100.00
		SCAN_ANGLE=0.00
		SCAN_DIAGONAL=NOT_DIAGONAL
		MEAS_PRESET=TIME_PRESET
		MEAS_TIME=10.000
		MEAS_UNIT=GY
		PRESSURE=1013.25
		TEMPERATURE=20.00
		NORM_TEMPERATURE=20.00
		CORRECTION_FACTOR=1.0000
		CORRECTIONS=AIR_DENSITY_CORR;
		BEGIN_DATA
			-60.00		8.6837E-03
			-30.00		10.723E-03
			30.00		10.189E-03
			60.00		7.8798E-03
		END_DATA
	END_SCAN  9
	BEGIN_SCAN  10
		TASK_NAME=MODE_INTERVAL
		PROGRAM=BeamAdjust 1.2
		MEAS_DATE=07-Oct-2010 14:16:20
		LINAC=A4
		MODALITY=X
		INPLANE_AXIS_DIR=TARGET_GUN
		CROSSPLANE_AXIS_DIR=LEFT_RIGHT
		DEPTH_AXIS_DIR=UP_DOWN
		ENERGY=6.00
		SSD=950.00
		WEDGE=None
		FIELD_INPLANE=100.00
		FIELD_CROSSPLANE=100.00
		FIELD_TYPE=RECTANGULAR
		GANTRY=0.00
		GANTRY_UPRIGHT_POSITION=0
		GANTRY_ROTATION=CW
		COLL_ANGLE=90.00
		COLL_OFFSET_INPLANE=0.00
		COLL_OFFSET_CROSSPLANE=0.00
		SCAN_DEVICE=STARCHECK
		ELECTROMETER=2D_ARRAY_INTERFACE
		DETECTOR=STARCHECK
		SCAN_CURVETYPE=INPLANE_PROFILE
		SCAN_DEPTH=0.00
		SCAN_OFFAXIS_CROSSPLANE=-50.00
		SCAN_ANGLE=0.00
		SCAN_DIAGONAL=NOT_DIAGONAL
		MEAS_PRESET=TIME_PRESET
		MEAS_TIME=10.000
		MEAS_UNIT=GY
		PRESSURE=1013.25
		TEMPERATURE=20.00
		NORM_TEMPERATURE=20.00
		CORRECTION_FACTOR=1.0000
		CORRECTIONS=AIR_DENSITY_CORR;
		BEGIN_DATA
			-30.00		398.35E-03
			-15.00		394.52E-03
			15.00		384.35E-03
			30.00		371.99E-03
		END_DATA
	END_SCAN  10
	BEGIN_SCAN  11
		TASK_NAME=MODE_INTERVAL
		PROGRAM=BeamAdjust 1.2
		MEAS_DATE=07-Oct-2010 14:16:20
		LINAC=A4
		MODALITY=X
		INPLANE_AXIS_DIR=TARGET_GUN
		CROSSPLANE_AXIS_DIR=LEFT_RIGHT
		DEPTH_AXIS_DIR=UP_DOWN
		ENERGY=6.00
		SSD=950.00
		WEDGE=None
		FIELD_INPLANE=100.00
		FIELD_CROSSPLANE=100.00
		FIELD_TYPE=RECTANGULAR
		GANTRY=0.00
		GANTRY_UPRIGHT_POSITION=0
		GANTRY_ROTATION=CW
		COLL_ANGLE=90.00
		COLL_OFFSET_INPLANE=0.00
		COLL_OFFSET_CROSSPLANE=0.00
		SCAN_DEVICE=STARCHECK
		ELECTROMETER=2D_ARRAY_INTERFACE
		DETECTOR=STARCHECK
		SCAN_CURVETYPE=INPLANE_PROFILE
		SCAN_DEPTH=0.00
		SCAN_OFFAXIS_CROSSPLANE=0.00
		SCAN_ANGLE=0.00
		SCAN_DIAGONAL=NOT_DIAGONAL
		MEAS_PRESET=TIME_PRESET
		MEAS_TIME=10.000
		MEAS_UNIT=GY
		PRESSURE=1013.25
		TEMPERATURE=20.00
		NORM_TEMPERATURE=20.00
		CORRECTION_FACTOR=1.0000
		CORRECTIONS=AIR_DENSITY_CORR;
		BEGIN_DATA
			-126.00		9.5084E-03
			-123.00		9.9677E-03
			-120.00		10.891E-03
			-117.00		11.803E-03
			-114.00		12.273E-03
			-111.00		13.198E-03
			-108.00		14.284E-03
			-105.00		15.146E-03
			-102.00		16.712E-03
			-99.00		17.343E-03
			-96.00		18.926E-03
			-93.00		21.218E-03
			-90.00		22.714E-03
			-87.00		24.605E-03
			-84.00		26.868E-03
			-81.00		30.029E-03
			-78.00		32.242E-03
			-75.00		35.055E-03
			-72.00		38.933E-03
			-69.00		43.157E-03
			-66.00		49.548E-03
			-63.00		57.684E-03
			-60.00		72.127E-03
			-57.00		105.31E-03
			-54.00		209.01E-03
			-51.00		471.44E-03
			-48.00		608.28E-03
			-45.00		638.17E-03
			-42.00		650.23E-03
			-39.00		656.81E-03
			-36.00		660.70E-03
			-33.00		663.19E-03
			-30.00		666.30E-03
			-27.00		666.97E-03
			-24.00		666.22E-03
			-21.00		665.83E-03
			-18.00		672.82E-03
			-15.00		670.25E-03
			-12.00		670.61E-03
			-9.00		670.32E-03
			-6.00		667.41E-03
			0.00		668.80E-03
			6.00		672.72E-03
			9.00		671.16E-03
			12.00		669.41E-03
			15.00		666.95E-03
			18.00		663.24E-03
			21.00		663.22E-03
			24.00		659.60E-03
			27.00		660.43E-03
			30.00		655.75E-03
			33.00		652.36E-03
			36.00		648.60E-03
			39.00		634.72E-03
			42.00		613.33E-03
			45.00		531.32E-03
			48.00		268.50E-03
			51.00		124.64E-03
			54.00		77.757E-03
			57.00		60.825E-03
			60.00		51.466E-03
			63.00		45.037E-03
			66.00		40.496E-03
			69.00		36.241E-03
			72.00		32.934E-03
			75.00		29.515E-03
			78.00		26.515E-03
			81.00		24.580E-03
			84.00		23.024E-03
			87.00		20.996E-03
			90.00		19.788E-03
			93.00		18.548E-03
			96.00		16.814E-03
			99.00		15.339E-03
			102.00		13.847E-03
			105.00		13.063E-03
			108.00		12.615E-03
			111.00		11.444E-03
			114.00		10.964E-03
			117.00		9.8015E-03
			120.00		9.4258E-03
			123.00		8.6969E-03
			126.00		7.8820E-03
		END_DATA
	END_SCAN  11
	BEGIN_SCAN  12
		TASK_NAME=MODE_INTERVAL
		PROGRAM=BeamAdjust 1.2
		MEAS_DATE=07-Oct-2010 14:16:20
		LINAC=A4
		MODALITY=X
		INPLANE_AXIS_DIR=TARGET_GUN
		CROSSPLANE_AXIS_DIR=LEFT_RIGHT
		DEPTH_AXIS_DIR=UP_DOWN
		ENERGY=6.00
		SSD=950.00
		WEDGE=None
		FIELD_INPLANE=100.00
		FIELD_CROSSPLANE=100.00
		FIELD_TYPE=RECTANGULAR
		GANTRY=0.00
		GANTRY_UPRIGHT_POSITION=0
		GANTRY_ROTATION=CW
		COLL_ANGLE=90.00
		COLL_OFFSET_INPLANE=0.00
		COLL_OFFSET_CROSSPLANE=0.00
		SCAN_DEVICE=STARCHECK
		ELECTROMETER=2D_ARRAY_INTERFACE
		DETECTOR=STARCHECK
		SCAN_CURVETYPE=INPLANE_PROFILE
		SCAN_DEPTH=0.00
		SCAN_OFFAXIS_CROSSPLANE=50.00
		SCAN_ANGLE=0.00
		SCAN_DIAGONAL=NOT_DIAGONAL
		MEAS_PRESET=TIME_PRESET
		MEAS_TIME=10.000
		MEAS_UNIT=GY
		PRESSURE=1013.25
		TEMPERATURE=20.00
		NORM_TEMPERATURE=20.00
		CORRECTION_FACTOR=1.0000
		CORRECTIONS=AIR_DENSITY_CORR;
		BEGIN_DATA
			-30.00		327.02E-03
			-15.00		335.54E-03
			15.00		342.52E-03
			30.00		342.80E-03
		END_DATA
	END_SCAN  12
	BEGIN_SCAN  13
		TASK_NAME=MODE_INTERVAL
		PROGRAM=BeamAdjust 1.2
		MEAS_DATE=07-Oct-2010 14:16:20
		LINAC=A4
		MODALITY=X
		INPLANE_AXIS_DIR=TARGET_GUN
		CROSSPLANE_AXIS_DIR=LEFT_RIGHT
		DEPTH_AXIS_DIR=UP_DOWN
		ENERGY=6.00
		SSD=950.00
		WEDGE=None
		FIELD_INPLANE=100.00
		FIELD_CROSSPLANE=100.00
		FIELD_TYPE=RECTANGULAR
		GANTRY=0.00
		GANTRY_UPRIGHT_POSITION=0
		GANTRY_ROTATION=CW
		COLL_ANGLE=90.00
		COLL_OFFSET_INPLANE=0.00
		COLL_OFFSET_CROSSPLANE=0.00
		SCAN_DEVICE=STARCHECK
		ELECTROMETER=2D_ARRAY_INTERFACE
		DETECTOR=STARCHECK
		SCAN_CURVETYPE=INPLANE_PROFILE
		SCAN_DEPTH=0.00
		SCAN_OFFAXIS_CROSSPLANE=100.00
		SCAN_ANGLE=0.00
		SCAN_DIAGONAL=NOT_DIAGONAL
		MEAS_PRESET=TIME_PRESET
		MEAS_TIME=10.000
		MEAS_UNIT=GY
		PRESSURE=1013.25
		TEMPERATURE=20.00
		NORM_TEMPERATURE=20.00
		CORRECTION_FACTOR=1.0000
		CORRECTIONS=AIR_DENSITY_CORR;
		BEGIN_DATA
			-60.00		8.2654E-03
			-30.00		10.548E-03
			30.00		10.270E-03
			60.00		7.5863E-03
		END_DATA
	END_SCAN  13
	BEGIN_SCAN  14
		TASK_NAME=MODE_INTERVAL
		PROGRAM=BeamAdjust 1.2
		MEAS_DATE=07-Oct-2010 14:16:20
		LINAC=A4
		MODALITY=X
		INPLANE_AXIS_DIR=TARGET_GUN
		CROSSPLANE_AXIS_DIR=LEFT_RIGHT
		DEPTH_AXIS_DIR=UP_DOWN
		ENERGY=6.00
		SSD=950.00
		WEDGE=None
		FIELD_INPLANE=100.00
		FIELD_CROSSPLANE=100.00
		FIELD_TYPE=RECTANGULAR
		GANTRY=0.00
		GANTRY_UPRIGHT_POSITION=0
		GANTRY_ROTATION=CW
		COLL_ANGLE=90.00
		COLL_OFFSET_INPLANE=0.00
		COLL_OFFSET_CROSSPLANE=0.00
		SCAN_DEVICE=STARCHECK
		ELECTROMETER=2D_ARRAY_INTERFACE
		DETECTOR=STARCHECK
		SCAN_CURVETYPE=INPLANE_PROFILE
		SCAN_DEPTH=0.00
		SCAN_OFFAXIS_CROSSPLANE=130.00
		SCAN_ANGLE=0.00
		SCAN_DIAGONAL=NOT_DIAGONAL
		MEAS_PRESET=TIME_PRESET
		MEAS_TIME=10.000
		MEAS_UNIT=GY
		PRESSURE=1013.25
		TEMPERATURE=20.00
		NORM_TEMPERATURE=20.00
		CORRECTION_FACTOR=1.0000
		CORRECTIONS=AIR_DENSITY_CORR;
		BEGIN_DATA
			-130.00		1.7684E-03
			-125.00		2.5701E-03
			-120.00		2.3457E-03
			-115.00		2.6693E-03
			-110.00		2.7283E-03
			-105.00		2.8220E-03
			-100.00		3.0863E-03
			-95.00		3.0760E-03
			-90.00		2.8065E-03
			-85.00		3.8535E-03
			-80.00		3.6990E-03
			-75.00		3.8509E-03
			-70.00		4.6058E-03
			-65.00		4.0661E-03
			-60.00		4.7639E-03
			-55.00		4.2808E-03
			-50.00		4.1837E-03
			-45.00		4.6972E-03
			-40.00		5.1595E-03
			-35.00		5.2980E-03
			-30.00		5.2088E-03
			-25.00		4.8823E-03
			-20.00		5.3058E-03
			-15.00		5.3959E-03
			-10.00		4.7314E-03
			-5.00		5.8745E-03
			0.00		6.4991E-03
			5.00		5.5318E-03
			10.00		5.8211E-03
			15.00		5.2206E-03
			20.00		5.2417E-03
			25.00		5.3397E-03
			30.00		5.0073E-03
			35.00		5.2464E-03
			40.00		5.3621E-03
			45.00		4.9604E-03
			50.00		4.8074E-03
			55.00		5.1821E-03
			60.00		4.5722E-03
			65.00		4.0594E-03
			70.00		4.4749E-03
			75.00		4.1711E-03
			80.00		4.0332E-03
			85.00		3.7934E-03
			90.00		3.3207E-03
			95.00		3.3979E-03
			100.00		3.5036E-03
			105.00		2.7921E-03
			110.00		2.6575E-03
			115.00		2.6961E-03
			120.00		2.8112E-03
			125.00		2.2742E-03
			130.00		2.2087E-03
		END_DATA
	END_SCAN  14
	BEGIN_SCAN  15
		TASK_NAME=MODE_INTERVAL
		PROGRAM=BeamAdjust 1.2
		MEAS_DATE=07-Oct-2010 14:16:20
		LINAC=A4
		MODALITY=X
		INPLANE_AXIS_DIR=TARGET_GUN
		CROSSPLANE_AXIS_DIR=LEFT_RIGHT
		DEPTH_AXIS_DIR=UP_DOWN
		ENERGY=6.00
		SSD=950.00
		WEDGE=None
		FIELD_INPLANE=100.00
		FIELD_CROSSPLANE=100.00
		FIELD_TYPE=RECTANGULAR
		GANTRY=0.00
		GANTRY_UPRIGHT_POSITION=0
		GANTRY_ROTATION=CW
		COLL_ANGLE=90.00
		COLL_OFFSET_INPLANE=0.00
		COLL_OFFSET_CROSSPLANE=0.00
		SCAN_DEVICE=STARCHECK
		ELECTROMETER=2D_ARRAY_INTERFACE
		DETECTOR=STARCHECK
		SCAN_CURVETYPE=INPLANE_PROFILE
		SCAN_DEPTH=0.00
		SCAN_OFFAXIS_CROSSPLANE=0.00
		SCAN_ANGLE=0.00
		SCAN_DIAGONAL=FIRST_DIAGONAL
		MEAS_PRESET=TIME_PRESET
		MEAS_TIME=10.000
		MEAS_UNIT=GY
		PRESSURE=1013.25
		TEMPERATURE=20.00
		NORM_TEMPERATURE=20.00
		CORRECTION_FACTOR=1.0000
		CORRECTIONS=AIR_DENSITY_CORR;
		BEGIN_DATA
			-172.40		2.8077E-03
			-169.40		3.2932E-03
			-166.40		3.9653E-03
			-163.40		3.6867E-03
			-160.40		3.6819E-03
			-157.40		3.8323E-03
			-154.40		3.7962E-03
			-151.40		3.6644E-03
			-148.40		4.3834E-03
			-145.40		4.8784E-03
			-142.40		5.3822E-03
			-139.40		5.7207E-03
			-136.40		5.8397E-03
			-133.40		6.8011E-03
			-130.40		7.1811E-03
			-127.40		7.9802E-03
			-124.40		8.4977E-03
			-121.40		9.1907E-03
			-118.40		10.260E-03
			-115.40		10.977E-03
			-112.40		11.909E-03
			-109.40		13.330E-03
			-106.40		14.544E-03
			-103.40		15.351E-03
			-100.40		16.648E-03
			-97.40		19.126E-03
			-94.40		20.869E-03
			-91.40		23.338E-03
			-88.40		26.203E-03
			-85.40		30.057E-03
			-82.40		34.791E-03
			-79.40		42.879E-03
			-76.40		61.058E-03
			-73.40		126.18E-03
			-70.40		306.86E-03
			-67.40		495.24E-03
			-64.40		583.52E-03
			-61.40		615.76E-03
			-58.40		630.87E-03
			-55.40		640.73E-03
			-52.40		646.48E-03
			-49.40		651.03E-03
			-46.40		653.29E-03
			-43.40		656.02E-03
			-40.40		658.25E-03
			-37.40		662.64E-03
			-34.40		661.99E-03
			-31.40		664.14E-03
			-28.40		662.10E-03
			-25.40		664.97E-03
			-22.40		665.42E-03
			-19.40		666.28E-03
			-16.40		669.72E-03
			-13.40		671.59E-03
			0.00		668.80E-03
			13.40		670.96E-03
			16.40		667.01E-03
			19.40		666.79E-03
			22.40		666.31E-03
			25.40		664.68E-03
			28.40		663.33E-03
			31.40		660.56E-03
			34.40		657.58E-03
			37.40		659.65E-03
			40.40		656.53E-03
			43.40		653.10E-03
			46.40		650.62E-03
			49.40		643.81E-03
			52.40		637.59E-03
			55.40		621.58E-03
			58.40		597.63E-03
			61.40		533.93E-03
			64.40		394.38E-03
			67.40		210.83E-03
			70.40		89.757E-03
			73.40		52.474E-03
			76.40		39.401E-03
			79.40		32.688E-03
			82.40		28.408E-03
			85.40		24.743E-03
			88.40		22.695E-03
			91.40		19.892E-03
			94.40		18.050E-03
			97.40		16.280E-03
			100.40		14.863E-03
			103.40		13.974E-03
			106.40		13.208E-03
			109.40		11.687E-03
			112.40		9.8893E-03
			115.40		9.4630E-03
			118.40		8.5293E-03
			121.40		8.0280E-03
			124.40		7.6345E-03
			127.40		7.2823E-03
			130.40		7.0422E-03
			133.40		6.0137E-03
			136.40		5.3097E-03
			139.40		4.8684E-03
			142.40		4.6676E-03
			145.40		4.5261E-03
			148.40		5.1297E-03
			151.40		3.9855E-03
			154.40		3.9510E-03
			157.40		3.4034E-03
			160.40		2.6373E-03
			163.40		2.5679E-03
			166.40		2.8245E-03
			169.40		2.4836E-03
			172.40		2.6340E-03
		END_DATA
	END_SCAN  15
	BEGIN_SCAN  16
		TASK_NAME=MODE_INTERVAL
		PROGRAM=BeamAdjust 1.2
		MEAS_DATE=07-Oct-2010 14:16:20
		LINAC=A4
		MODALITY=X
		INPLANE_AXIS_DIR=GUN_TARGET
		CROSSPLANE_AXIS_DIR=LEFT_RIGHT
		DEPTH_AXIS_DIR=UP_DOWN
		ENERGY=6.00
		SSD=950.00
		WEDGE=None
		FIELD_INPLANE=100.00
		FIELD_CROSSPLANE=100.00
		FIELD_TYPE=RECTANGULAR
		GANTRY=0.00
		GANTRY_UPRIGHT_POSITION=0
		GANTRY_ROTATION=CW
		COLL_ANGLE=90.00
		COLL_OFFSET_INPLANE=0.00
		COLL_OFFSET_CROSSPLANE=0.00
		SCAN_DEVICE=STARCHECK
		ELECTROMETER=2D_ARRAY_INTERFACE
		DETECTOR=STARCHECK
		SCAN_CURVETYPE=INPLANE_PROFILE
		SCAN_DEPTH=0.00
		SCAN_OFFAXIS_CROSSPLANE=0.00
		SCAN_ANGLE=0.00
		SCAN_DIAGONAL=SECOND_DIAGONAL
		MEAS_PRESET=TIME_PRESET
		MEAS_TIME=10.000
		MEAS_UNIT=GY
		PRESSURE=1013.25
		TEMPERATURE=20.00
		NORM_TEMPERATURE=20.00
		CORRECTION_FACTOR=1.0000
		CORRECTIONS=AIR_DENSITY_CORR;
		BEGIN_DATA
			-172.40		3.0510E-03
			-169.40		3.1959E-03
			-166.40		3.2571E-03
			-163.40		3.3224E-03
			-160.40		3.6372E-03
			-157.40		3.7549E-03
			-154.40		3.9055E-03
			-151.40		4.1166E-03
			-148.40		4.4816E-03
			-145.40		4.5649E-03
			-142.40		5.0610E-03
			-139.40		5.5736E-03
			-136.40		5.4486E-03
			-133.40		6.4086E-03
			-130.40		6.7185E-03
			-127.40		7.4557E-03
			-124.40		8.3882E-03
			-121.40		8.9763E-03
			-118.40		9.7274E-03
			-115.40		10.411E-03
			-112.40		11.205E-03
			-109.40		12.588E-03
			-106.40		13.800E-03
			-103.40		15.069E-03
			-100.40		16.988E-03
			-97.40		18.831E-03
			-94.40		19.935E-03
			-91.40		22.528E-03
			-88.40		24.518E-03
			-85.40		27.792E-03
			-82.40		32.563E-03
			-79.40		39.686E-03
			-76.40		53.716E-03
			-73.40		96.554E-03
			-70.40		242.41E-03
			-67.40		444.19E-03
			-64.40		566.26E-03
			-61.40		612.52E-03
			-58.40		633.60E-03
			-55.40		643.19E-03
			-52.40		652.80E-03
			-49.40		656.38E-03
			-46.40		659.35E-03
			-43.40		661.83E-03
			-40.40		663.69E-03
			-37.40		666.62E-03
			-34.40		665.79E-03
			-31.40		666.68E-03
			-28.40		668.56E-03
			-25.40		667.37E-03
			-22.40		665.73E-03
			-19.40		669.30E-03
			-16.40		670.91E-03
			-13.40		673.83E-03
			0.00		668.80E-03
			13.40		670.33E-03
			16.40		667.38E-03
			19.40		664.36E-03
			22.40		661.95E-03
			25.40		661.65E-03
			28.40		660.42E-03
			31.40		658.63E-03
			34.40		655.44E-03
			37.40		654.67E-03
			40.40		653.17E-03
			43.40		650.48E-03
			46.40		648.01E-03
			49.40		642.97E-03
			52.40		633.71E-03
			55.40		621.21E-03
			58.40		601.94E-03
			61.40		547.61E-03
			64.40		420.13E-03
			67.40		233.37E-03
			70.40		98.149E-03
			73.40		54.531E-03
			76.40		39.934E-03
			79.40		32.872E-03
			82.40		29.152E-03
			85.40		25.702E-03
			88.40		23.003E-03
			91.40		20.727E-03
			94.40		19.162E-03
			97.40		17.092E-03
			100.40		14.592E-03
			103.40		13.521E-03
			106.40		12.745E-03
			109.40		11.475E-03
			112.40		10.679E-03
			115.40		9.9111E-03
			118.40		9.0619E-03
			121.40		8.2787E-03
			124.40		7.5800E-03
			127.40		7.0424E-03
			130.40		7.1143E-03
			133.40		6.4745E-03
			136.40		5.9615E-03
			139.40		5.8953E-03
			142.40		5.4293E-03
			145.40		5.1177E-03
			148.40		4.5975E-03
			151.40		4.1735E-03
			154.40		3.9538E-03
			157.40		3.9419E-03
			160.40		3.5647E-03
			163.40		3.7157E-03
			166.40		3.4990E-03
			169.40		2.8238E-03
			172.40		2.5124E-03
		END_DATA
	END_SCAN  16
END_SCAN_DATA
