BEGIN_SCAN_DATA
	FORMAT=CC-Export V1.9                  
	FILE_CREATION_DATE=07-Oct-2010 14:15:51
	LAST_MODIFIED=07-Oct-2010 14:15:51
	BEGIN_SCAN  1
		TASK_NAME=MODE_INTERVAL
		PROGRAM=BeamAdjust 1.2
		MEAS_DATE=07-Oct-2010 14:15:51
		LINAC=A4
		MODALITY=X
		INPLANE_AXIS_DIR=TARGET_GUN
		CROSSPLANE_AXIS_DIR=LEFT_RIGHT
		DEPTH_AXIS_DIR=UP_DOWN
		ENERGY=6.00
		SSD=950.00
		WEDGE=None
		FIELD_INPLANE=100.00
		FIELD_CROSSPLANE=100.00
		FIELD_TYPE=RECTANGULAR
		GANTRY=0.00
		GANTRY_UPRIGHT_POSITION=0
		GANTRY_ROTATION=CW
		COLL_ANGLE=90.00
		COLL_OFFSET_INPLANE=0.00
		COLL_OFFSET_CROSSPLANE=0.00
		SCAN_DEVICE=STARCHECK
		ELECTROMETER=2D_ARRAY_INTERFACE
		DETECTOR=STARCHECK
		SCAN_CURVETYPE=CROSSPLANE_PROFILE
		SCAN_DEPTH=0.00
		SCAN_OFFAXIS_INPLANE=-130.00
		SCAN_ANGLE=0.00
		SCAN_DIAGONAL=NOT_DIAGONAL
		MEAS_PRESET=TIME_PRESET
		MEAS_TIME=10.000
		MEAS_UNIT=GY
		PRESSURE=1013.25
		TEMPERATURE=20.00
		NORM_TEMPERATURE=20.00
		CORRECTION_FACTOR=1.0000
		CORRECTIONS=AIR_DENSITY_CORR;
		BEGIN_DATA
			-130.00		2.8699E-03
			-80.00		4.3733E-03
			-40.00		7.7045E-03
			40.00		7.2195E-03
			80.00		3.8831E-03
			130.00		1.8477E-03
		END_DATA
	END_SCAN  1
	BEGIN_SCAN  2
		TASK_NAME=MODE_INTERVAL
		PROGRAM=BeamAdjust 1.2
		MEAS_DATE=07-Oct-2010 14:15:51
		LINAC=A4
		MODALITY=X
		INPLANE_AXIS_DIR=TARGET_GUN
		CROSSPLANE_AXIS_DIR=LEFT_RIGHT
		DEPTH_AXIS_DIR=UP_DOWN
		ENERGY=6.00
		SSD=950.00
		WEDGE=None
		FIELD_INPLANE=100.00
		FIELD_CROSSPLANE=100.00
		FIELD_TYPE=RECTANGULAR
		GANTRY=0.00
		GANTRY_UPRIGHT_POSITION=0
		GANTRY_ROTATION=CW
		COLL_ANGLE=90.00
		COLL_OFFSET_INPLANE=0.00
		COLL_OFFSET_CROSSPLANE=0.00
		SCAN_DEVICE=STARCHECK
		ELECTROMETER=2D_ARRAY_INTERFACE
		DETECTOR=STARCHECK
		SCAN_CURVETYPE=CROSSPLANE_PROFILE
		SCAN_DEPTH=0.00
		SCAN_OFFAXIS_INPLANE=-100.00
		SCAN_ANGLE=0.00
		SCAN_DIAGONAL=NOT_DIAGONAL
		MEAS_PRESET=TIME_PRESET
		MEAS_TIME=10.000
		MEAS_UNIT=GY
		PRESSURE=1013.25
		TEMPERATURE=20.00
		NORM_TEMPERATURE=20.00
		CORRECTION_FACTOR=1.0000
		CORRECTIONS=AIR_DENSITY_CORR;
		BEGIN_DATA
			-60.00		11.046E-03
			-30.00		15.370E-03
			30.00		15.700E-03
			60.00		10.327E-03
		END_DATA
	END_SCAN  2
	BEGIN_SCAN  3
		TASK_NAME=MODE_INTERVAL
		PROGRAM=BeamAdjust 1.2
		MEAS_DATE=07-Oct-2010 14:15:51
		LINAC=A4
		MODALITY=X
		INPLANE_AXIS_DIR=TARGET_GUN
		CROSSPLANE_AXIS_DIR=LEFT_RIGHT
		DEPTH_AXIS_DIR=UP_DOWN
		ENERGY=6.00
		SSD=950.00
		WEDGE=None
		FIELD_INPLANE=100.00
		FIELD_CROSSPLANE=100.00
		FIELD_TYPE=RECTANGULAR
		GANTRY=0.00
		GANTRY_UPRIGHT_POSITION=0
		GANTRY_ROTATION=CW
		COLL_ANGLE=90.00
		COLL_OFFSET_INPLANE=0.00
		COLL_OFFSET_CROSSPLANE=0.00
		SCAN_DEVICE=STARCHECK
		ELECTROMETER=2D_ARRAY_INTERFACE
		DETECTOR=STARCHECK
		SCAN_CURVETYPE=CROSSPLANE_PROFILE
		SCAN_DEPTH=0.00
		SCAN_OFFAXIS_INPLANE=-50.00
		SCAN_ANGLE=0.00
		SCAN_DIAGONAL=NOT_DIAGONAL
		MEAS_PRESET=TIME_PRESET
		MEAS_TIME=10.000
		MEAS_UNIT=GY
		PRESSURE=1013.25
		TEMPERATURE=20.00
		NORM_TEMPERATURE=20.00
		CORRECTION_FACTOR=1.0000
		CORRECTIONS=AIR_DENSITY_CORR;
		BEGIN_DATA
			-30.00		544.40E-03
			-15.00		514.79E-03
			15.00		538.57E-03
			30.00		542.85E-03
		END_DATA
	END_SCAN  3
	BEGIN_SCAN  4
		TASK_NAME=MODE_INTERVAL
		PROGRAM=BeamAdjust 1.2
		MEAS_DATE=07-Oct-2010 14:15:51
		LINAC=A4
		MODALITY=X
		INPLANE_AXIS_DIR=TARGET_GUN
		CROSSPLANE_AXIS_DIR=LEFT_RIGHT
		DEPTH_AXIS_DIR=UP_DOWN
		ENERGY=6.00
		SSD=950.00
		WEDGE=None
		FIELD_INPLANE=100.00
		FIELD_CROSSPLANE=100.00
		FIELD_TYPE=RECTANGULAR
		GANTRY=0.00
		GANTRY_UPRIGHT_POSITION=0
		GANTRY_ROTATION=CW
		COLL_ANGLE=90.00
		COLL_OFFSET_INPLANE=0.00
		COLL_OFFSET_CROSSPLANE=0.00
		SCAN_DEVICE=STARCHECK
		ELECTROMETER=2D_ARRAY_INTERFACE
		DETECTOR=STARCHECK
		SCAN_CURVETYPE=CROSSPLANE_PROFILE
		SCAN_DEPTH=0.00
		SCAN_OFFAXIS_INPLANE=0.00
		SCAN_ANGLE=0.00
		SCAN_DIAGONAL=NOT_DIAGONAL
		MEAS_PRESET=TIME_PRESET
		MEAS_TIME=10.000
		MEAS_UNIT=GY
		PRESSURE=1013.25
		TEMPERATURE=20.00
		NORM_TEMPERATURE=20.00
		CORRECTION_FACTOR=1.0000
		CORRECTIONS=AIR_DENSITY_CORR;
		BEGIN_DATA
			-126.00		6.6274E-03
			-123.00		7.6638E-03
			-120.00		8.0562E-03
			-117.00		8.7157E-03
			-114.00		9.0351E-03
			-111.00		9.5920E-03
			-108.00		10.616E-03
			-105.00		11.130E-03
			-102.00		11.940E-03
			-99.00		12.908E-03
			-96.00		14.055E-03
			-93.00		15.591E-03
			-90.00		16.761E-03
			-87.00		18.631E-03
			-84.00		20.532E-03
			-81.00		22.010E-03
			-78.00		24.187E-03
			-75.00		27.035E-03
			-72.00		30.016E-03
			-69.00		34.400E-03
			-66.00		39.477E-03
			-63.00		45.450E-03
			-60.00		55.181E-03
			-57.00		72.866E-03
			-54.00		114.70E-03
			-51.00		292.27E-03
			-48.00		556.06E-03
			-45.00		618.18E-03
			-42.00		637.03E-03
			-39.00		649.34E-03
			-36.00		655.34E-03
			-33.00		655.67E-03
			-30.00		657.78E-03
			-27.00		660.42E-03
			-24.00		662.61E-03
			-21.00		662.35E-03
			-18.00		668.17E-03
			-15.00		668.45E-03
			-12.00		668.00E-03
			-9.00		670.55E-03
			-6.00		669.78E-03
			0.00		669.13E-03
			6.00		672.90E-03
			9.00		671.34E-03
			12.00		668.72E-03
			15.00		667.60E-03
			18.00		667.14E-03
			21.00		665.22E-03
			24.00		661.75E-03
			27.00		665.67E-03
			30.00		664.14E-03
			33.00		661.40E-03
			36.00		658.30E-03
			39.00		652.08E-03
			42.00		640.62E-03
			45.00		615.60E-03
			48.00		526.64E-03
			51.00		231.81E-03
			54.00		101.99E-03
			57.00		68.374E-03
			60.00		53.052E-03
			63.00		44.391E-03
			66.00		37.805E-03
			69.00		33.104E-03
			72.00		29.711E-03
			75.00		26.598E-03
			78.00		23.657E-03
			81.00		21.635E-03
			84.00		19.696E-03
			87.00		17.669E-03
			90.00		17.215E-03
			93.00		14.936E-03
			96.00		13.418E-03
			99.00		12.663E-03
			102.00		11.842E-03
			105.00		10.672E-03
			108.00		10.452E-03
			111.00		9.0271E-03
			114.00		8.5698E-03
			117.00		7.9208E-03
			120.00		6.9756E-03
			123.00		6.9723E-03
			126.00		6.8163E-03
		END_DATA
	END_SCAN  4
	BEGIN_SCAN  5
		TASK_NAME=MODE_INTERVAL
		PROGRAM=BeamAdjust 1.2
		MEAS_DATE=07-Oct-2010 14:15:51
		LINAC=A4
		MODALITY=X
		INPLANE_AXIS_DIR=TARGET_GUN
		CROSSPLANE_AXIS_DIR=LEFT_RIGHT
		DEPTH_AXIS_DIR=UP_DOWN
		ENERGY=6.00
		SSD=950.00
		WEDGE=None
		FIELD_INPLANE=100.00
		FIELD_CROSSPLANE=100.00
		FIELD_TYPE=RECTANGULAR
		GANTRY=0.00
		GANTRY_UPRIGHT_POSITION=0
		GANTRY_ROTATION=CW
		COLL_ANGLE=90.00
		COLL_OFFSET_INPLANE=0.00
		COLL_OFFSET_CROSSPLANE=0.00
		SCAN_DEVICE=STARCHECK
		ELECTROMETER=2D_ARRAY_INTERFACE
		DETECTOR=STARCHECK
		SCAN_CURVETYPE=CROSSPLANE_PROFILE
		SCAN_DEPTH=0.00
		SCAN_OFFAXIS_INPLANE=50.00
		SCAN_ANGLE=0.00
		SCAN_DIAGONAL=NOT_DIAGONAL
		MEAS_PRESET=TIME_PRESET
		MEAS_TIME=10.000
		MEAS_UNIT=GY
		PRESSURE=1013.25
		TEMPERATURE=20.00
		NORM_TEMPERATURE=20.00
		CORRECTION_FACTOR=1.0000
		CORRECTIONS=AIR_DENSITY_CORR;
		BEGIN_DATA
			-30.00		147.24E-03
			-15.00		152.37E-03
			15.00		137.15E-03
			30.00		141.64E-03
		END_DATA
	END_SCAN  5
	BEGIN_SCAN  6
		TASK_NAME=MODE_INTERVAL
		PROGRAM=BeamAdjust 1.2
		MEAS_DATE=07-Oct-2010 14:15:51
		LINAC=A4
		MODALITY=X
		INPLANE_AXIS_DIR=TARGET_GUN
		CROSSPLANE_AXIS_DIR=LEFT_RIGHT
		DEPTH_AXIS_DIR=UP_DOWN
		ENERGY=6.00
		SSD=950.00
		WEDGE=None
		FIELD_INPLANE=100.00
		FIELD_CROSSPLANE=100.00
		FIELD_TYPE=RECTANGULAR
		GANTRY=0.00
		GANTRY_UPRIGHT_POSITION=0
		GANTRY_ROTATION=CW
		COLL_ANGLE=90.00
		COLL_OFFSET_INPLANE=0.00
		COLL_OFFSET_CROSSPLANE=0.00
		SCAN_DEVICE=STARCHECK
		ELECTROMETER=2D_ARRAY_INTERFACE
		DETECTOR=STARCHECK
		SCAN_CURVETYPE=CROSSPLANE_PROFILE
		SCAN_DEPTH=0.00
		SCAN_OFFAXIS_INPLANE=100.00
		SCAN_ANGLE=0.00
		SCAN_DIAGONAL=NOT_DIAGONAL
		MEAS_PRESET=TIME_PRESET
		MEAS_TIME=10.000
		MEAS_UNIT=GY
		PRESSURE=1013.25
		TEMPERATURE=20.00
		NORM_TEMPERATURE=20.00
		CORRECTION_FACTOR=1.0000
		CORRECTIONS=AIR_DENSITY_CORR;
		BEGIN_DATA
			-60.00		10.020E-03
			-30.00		14.553E-03
			30.00		14.258E-03
			60.00		9.0068E-03
		END_DATA
	END_SCAN  6
	BEGIN_SCAN  7
		TASK_NAME=MODE_INTERVAL
		PROGRAM=BeamAdjust 1.2
		MEAS_DATE=07-Oct-2010 14:15:51
		LINAC=A4
		MODALITY=X
		INPLANE_AXIS_DIR=TARGET_GUN
		CROSSPLANE_AXIS_DIR=LEFT_RIGHT
		DEPTH_AXIS_DIR=UP_DOWN
		ENERGY=6.00
		SSD=950.00
		WEDGE=None
		FIELD_INPLANE=100.00
		FIELD_CROSSPLANE=100.00
		FIELD_TYPE=RECTANGULAR
		GANTRY=0.00
		GANTRY_UPRIGHT_POSITION=0
		GANTRY_ROTATION=CW
		COLL_ANGLE=90.00
		COLL_OFFSET_INPLANE=0.00
		COLL_OFFSET_CROSSPLANE=0.00
		SCAN_DEVICE=STARCHECK
		ELECTROMETER=2D_ARRAY_INTERFACE
		DETECTOR=STARCHECK
		SCAN_CURVETYPE=CROSSPLANE_PROFILE
		SCAN_DEPTH=0.00
		SCAN_OFFAXIS_INPLANE=130.00
		SCAN_ANGLE=0.00
		SCAN_DIAGONAL=NOT_DIAGONAL
		MEAS_PRESET=TIME_PRESET
		MEAS_TIME=10.000
		MEAS_UNIT=GY
		PRESSURE=1013.25
		TEMPERATURE=20.00
		NORM_TEMPERATURE=20.00
		CORRECTION_FACTOR=1.0000
		CORRECTIONS=AIR_DENSITY_CORR;
		BEGIN_DATA
			-130.00		2.0996E-03
			-80.00		4.2356E-03
			-40.00		7.4243E-03
			40.00		6.9536E-03
			80.00		3.8097E-03
			130.00		2.1614E-03
		END_DATA
	END_SCAN  7
	BEGIN_SCAN  8
		TASK_NAME=MODE_INTERVAL
		PROGRAM=BeamAdjust 1.2
		MEAS_DATE=07-Oct-2010 14:15:51
		LINAC=A4
		MODALITY=X
		INPLANE_AXIS_DIR=TARGET_GUN
		CROSSPLANE_AXIS_DIR=LEFT_RIGHT
		DEPTH_AXIS_DIR=UP_DOWN
		ENERGY=6.00
		SSD=950.00
		WEDGE=None
		FIELD_INPLANE=100.00
		FIELD_CROSSPLANE=100.00
		FIELD_TYPE=RECTANGULAR
		GANTRY=0.00
		GANTRY_UPRIGHT_POSITION=0
		GANTRY_ROTATION=CW
		COLL_ANGLE=90.00
		COLL_OFFSET_INPLANE=0.00
		COLL_OFFSET_CROSSPLANE=0.00
		SCAN_DEVICE=STARCHECK
		ELECTROMETER=2D_ARRAY_INTERFACE
		DETECTOR=STARCHECK
		SCAN_CURVETYPE=INPLANE_PROFILE
		SCAN_DEPTH=0.00
		SCAN_OFFAXIS_CROSSPLANE=-130.00
		SCAN_ANGLE=0.00
		SCAN_DIAGONAL=NOT_DIAGONAL
		MEAS_PRESET=TIME_PRESET
		MEAS_TIME=10.000
		MEAS_UNIT=GY
		PRESSURE=1013.25
		TEMPERATURE=20.00
		NORM_TEMPERATURE=20.00
		CORRECTION_FACTOR=1.0000
		CORRECTIONS=AIR_DENSITY_CORR;
		BEGIN_DATA
			-130.00		2.8699E-03
			-125.00		2.8794E-03
			-120.00		3.2475E-03
			-115.00		3.5787E-03
			-110.00		3.6926E-03
			-105.00		3.9298E-03
			-100.00		4.3261E-03
			-95.00		4.6872E-03
			-90.00		5.1114E-03
			-85.00		4.7800E-03
			-80.00		4.6466E-03
			-75.00		5.1369E-03
			-70.00		5.1447E-03
			-65.00		5.3822E-03
			-60.00		5.5018E-03
			-55.00		6.2582E-03
			-50.00		4.6124E-03
			-45.00		4.9877E-03
			-40.00		5.1294E-03
			-35.00		5.6008E-03
			-30.00		5.6364E-03
			-25.00		5.4026E-03
			-20.00		5.8884E-03
			-15.00		5.1802E-03
			-10.00		5.5458E-03
			-5.00		6.5840E-03
			0.00		6.2850E-03
			5.00		6.5548E-03
			10.00		6.0167E-03
			15.00		5.7956E-03
			20.00		6.0638E-03
			25.00		5.3024E-03
			30.00		5.7573E-03
			35.00		5.4629E-03
			40.00		5.2436E-03
			45.00		4.8235E-03
			50.00		5.6111E-03
			55.00		4.5805E-03
			60.00		4.7186E-03
			65.00		4.1496E-03
			70.00		3.9850E-03
			75.00		4.0506E-03
			80.00		3.8226E-03
			85.00		3.5178E-03
			90.00		3.4253E-03
			95.00		3.5077E-03
			100.00		3.1968E-03
			105.00		2.6206E-03
			110.00		2.7110E-03
			115.00		2.3930E-03
			120.00		3.3080E-03
			125.00		2.4475E-03
			130.00		2.0996E-03
		END_DATA
	END_SCAN  8
	BEGIN_SCAN  9
		TASK_NAME=MODE_INTERVAL
		PROGRAM=BeamAdjust 1.2
		MEAS_DATE=07-Oct-2010 14:15:51
		LINAC=A4
		MODALITY=X
		INPLANE_AXIS_DIR=TARGET_GUN
		CROSSPLANE_AXIS_DIR=LEFT_RIGHT
		DEPTH_AXIS_DIR=UP_DOWN
		ENERGY=6.00
		SSD=950.00
		WEDGE=None
		FIELD_INPLANE=100.00
		FIELD_CROSSPLANE=100.00
		FIELD_TYPE=RECTANGULAR
		GANTRY=0.00
		GANTRY_UPRIGHT_POSITION=0
		GANTRY_ROTATION=CW
		COLL_ANGLE=90.00
		COLL_OFFSET_INPLANE=0.00
		COLL_OFFSET_CROSSPLANE=0.00
		SCAN_DEVICE=STARCHECK
		ELECTROMETER=2D_ARRAY_INTERFACE
		DETECTOR=STARCHECK
		SCAN_CURVETYPE=INPLANE_PROFILE
		SCAN_DEPTH=0.00
		SCAN_OFFAXIS_CROSSPLANE=-100.00
		SCAN_ANGLE=0.00
		SCAN_DIAGONAL=NOT_DIAGONAL
		MEAS_PRESET=TIME_PRESET
		MEAS_TIME=10.000
		MEAS_UNIT=GY
		PRESSURE=1013.25
		TEMPERATURE=20.00
		NORM_TEMPERATURE=20.00
		CORRECTION_FACTOR=1.0000
		CORRECTIONS=AIR_DENSITY_CORR;
		BEGIN_DATA
			-60.00		8.8436E-03
			-30.00		10.862E-03
			30.00		10.283E-03
			60.00		8.1105E-03
		END_DATA
	END_SCAN  9
	BEGIN_SCAN  10
		TASK_NAME=MODE_INTERVAL
		PROGRAM=BeamAdjust 1.2
		MEAS_DATE=07-Oct-2010 14:15:51
		LINAC=A4
		MODALITY=X
		INPLANE_AXIS_DIR=TARGET_GUN
		CROSSPLANE_AXIS_DIR=LEFT_RIGHT
		DEPTH_AXIS_DIR=UP_DOWN
		ENERGY=6.00
		SSD=950.00
		WEDGE=None
		FIELD_INPLANE=100.00
		FIELD_CROSSPLANE=100.00
		FIELD_TYPE=RECTANGULAR
		GANTRY=0.00
		GANTRY_UPRIGHT_POSITION=0
		GANTRY_ROTATION=CW
		COLL_ANGLE=90.00
		COLL_OFFSET_INPLANE=0.00
		COLL_OFFSET_CROSSPLANE=0.00
		SCAN_DEVICE=STARCHECK
		ELECTROMETER=2D_ARRAY_INTERFACE
		DETECTOR=STARCHECK
		SCAN_CURVETYPE=INPLANE_PROFILE
		SCAN_DEPTH=0.00
		SCAN_OFFAXIS_CROSSPLANE=-50.00
		SCAN_ANGLE=0.00
		SCAN_DIAGONAL=NOT_DIAGONAL
		MEAS_PRESET=TIME_PRESET
		MEAS_TIME=10.000
		MEAS_UNIT=GY
		PRESSURE=1013.25
		TEMPERATURE=20.00
		NORM_TEMPERATURE=20.00
		CORRECTION_FACTOR=1.0000
		CORRECTIONS=AIR_DENSITY_CORR;
		BEGIN_DATA
			-30.00		399.32E-03
			-15.00		396.07E-03
			15.00		384.41E-03
			30.00		372.79E-03
		END_DATA
	END_SCAN  10
	BEGIN_SCAN  11
		TASK_NAME=MODE_INTERVAL
		PROGRAM=BeamAdjust 1.2
		MEAS_DATE=07-Oct-2010 14:15:51
		LINAC=A4
		MODALITY=X
		INPLANE_AXIS_DIR=TARGET_GUN
		CROSSPLANE_AXIS_DIR=LEFT_RIGHT
		DEPTH_AXIS_DIR=UP_DOWN
		ENERGY=6.00
		SSD=950.00
		WEDGE=None
		FIELD_INPLANE=100.00
		FIELD_CROSSPLANE=100.00
		FIELD_TYPE=RECTANGULAR
		GANTRY=0.00
		GANTRY_UPRIGHT_POSITION=0
		GANTRY_ROTATION=CW
		COLL_ANGLE=90.00
		COLL_OFFSET_INPLANE=0.00
		COLL_OFFSET_CROSSPLANE=0.00
		SCAN_DEVICE=STARCHECK
		ELECTROMETER=2D_ARRAY_INTERFACE
		DETECTOR=STARCHECK
		SCAN_CURVETYPE=INPLANE_PROFILE
		SCAN_DEPTH=0.00
		SCAN_OFFAXIS_CROSSPLANE=0.00
		SCAN_ANGLE=0.00
		SCAN_DIAGONAL=NOT_DIAGONAL
		MEAS_PRESET=TIME_PRESET
		MEAS_TIME=10.000
		MEAS_UNIT=GY
		PRESSURE=1013.25
		TEMPERATURE=20.00
		NORM_TEMPERATURE=20.00
		CORRECTION_FACTOR=1.0000
		CORRECTIONS=AIR_DENSITY_CORR;
		BEGIN_DATA
			-126.00		10.110E-03
			-123.00		9.6008E-03
			-120.00		10.985E-03
			-117.00		12.049E-03
			-114.00		12.613E-03
			-111.00		13.482E-03
			-108.00		14.500E-03
			-105.00		15.490E-03
			-102.00		17.040E-03
			-99.00		17.769E-03
			-96.00		19.434E-03
			-93.00		21.702E-03
			-90.00		23.116E-03
			-87.00		24.988E-03
			-84.00		27.855E-03
			-81.00		30.034E-03
			-78.00		32.712E-03
			-75.00		35.608E-03
			-72.00		39.471E-03
			-69.00		43.946E-03
			-66.00		50.415E-03
			-63.00		59.072E-03
			-60.00		74.315E-03
			-57.00		111.26E-03
			-54.00		229.15E-03
			-51.00		496.37E-03
			-48.00		613.52E-03
			-45.00		640.31E-03
			-42.00		651.87E-03
			-39.00		657.50E-03
			-36.00		661.52E-03
			-33.00		663.82E-03
			-30.00		666.98E-03
			-27.00		667.79E-03
			-24.00		666.83E-03
			-21.00		666.61E-03
			-18.00		673.46E-03
			-15.00		670.97E-03
			-12.00		671.07E-03
			-9.00		670.34E-03
			-6.00		667.90E-03
			0.00		669.13E-03
			6.00		673.50E-03
			9.00		671.96E-03
			12.00		669.66E-03
			15.00		667.39E-03
			18.00		663.96E-03
			21.00		663.89E-03
			24.00		659.96E-03
			27.00		661.10E-03
			30.00		655.94E-03
			33.00		652.64E-03
			36.00		648.56E-03
			39.00		633.67E-03
			42.00		609.64E-03
			45.00		511.19E-03
			48.00		244.93E-03
			51.00		117.09E-03
			54.00		75.365E-03
			57.00		59.492E-03
			60.00		50.702E-03
			63.00		44.378E-03
			66.00		40.050E-03
			69.00		35.746E-03
			72.00		32.497E-03
			75.00		29.203E-03
			78.00		26.176E-03
			81.00		24.426E-03
			84.00		22.733E-03
			87.00		20.939E-03
			90.00		19.926E-03
			93.00		17.971E-03
			96.00		16.680E-03
			99.00		15.360E-03
			102.00		13.938E-03
			105.00		12.810E-03
			108.00		12.554E-03
			111.00		11.468E-03
			114.00		10.774E-03
			117.00		9.8613E-03
			120.00		9.3286E-03
			123.00		8.7193E-03
			126.00		8.0784E-03
		END_DATA
	END_SCAN  11
	BEGIN_SCAN  12
		TASK_NAME=MODE_INTERVAL
		PROGRAM=BeamAdjust 1.2
		MEAS_DATE=07-Oct-2010 14:15:51
		LINAC=A4
		MODALITY=X
		INPLANE_AXIS_DIR=TARGET_GUN
		CROSSPLANE_AXIS_DIR=LEFT_RIGHT
		DEPTH_AXIS_DIR=UP_DOWN
		ENERGY=6.00
		SSD=950.00
		WEDGE=None
		FIELD_INPLANE=100.00
		FIELD_CROSSPLANE=100.00
		FIELD_TYPE=RECTANGULAR
		GANTRY=0.00
		GANTRY_UPRIGHT_POSITION=0
		GANTRY_ROTATION=CW
		COLL_ANGLE=90.00
		COLL_OFFSET_INPLANE=0.00
		COLL_OFFSET_CROSSPLANE=0.00
		SCAN_DEVICE=STARCHECK
		ELECTROMETER=2D_ARRAY_INTERFACE
		DETECTOR=STARCHECK
		SCAN_CURVETYPE=INPLANE_PROFILE
		SCAN_DEPTH=0.00
		SCAN_OFFAXIS_CROSSPLANE=50.00
		SCAN_ANGLE=0.00
		SCAN_DIAGONAL=NOT_DIAGONAL
		MEAS_PRESET=TIME_PRESET
		MEAS_TIME=10.000
		MEAS_UNIT=GY
		PRESSURE=1013.25
		TEMPERATURE=20.00
		NORM_TEMPERATURE=20.00
		CORRECTION_FACTOR=1.0000
		CORRECTIONS=AIR_DENSITY_CORR;
		BEGIN_DATA
			-30.00		327.00E-03
			-15.00		335.49E-03
			15.00		342.58E-03
			30.00		342.64E-03
		END_DATA
	END_SCAN  12
	BEGIN_SCAN  13
		TASK_NAME=MODE_INTERVAL
		PROGRAM=BeamAdjust 1.2
		MEAS_DATE=07-Oct-2010 14:15:51
		LINAC=A4
		MODALITY=X
		INPLANE_AXIS_DIR=TARGET_GUN
		CROSSPLANE_AXIS_DIR=LEFT_RIGHT
		DEPTH_AXIS_DIR=UP_DOWN
		ENERGY=6.00
		SSD=950.00
		WEDGE=None
		FIELD_INPLANE=100.00
		FIELD_CROSSPLANE=100.00
		FIELD_TYPE=RECTANGULAR
		GANTRY=0.00
		GANTRY_UPRIGHT_POSITION=0
		GANTRY_ROTATION=CW
		COLL_ANGLE=90.00
		COLL_OFFSET_INPLANE=0.00
		COLL_OFFSET_CROSSPLANE=0.00
		SCAN_DEVICE=STARCHECK
		ELECTROMETER=2D_ARRAY_INTERFACE
		DETECTOR=STARCHECK
		SCAN_CURVETYPE=INPLANE_PROFILE
		SCAN_DEPTH=0.00
		SCAN_OFFAXIS_CROSSPLANE=100.00
		SCAN_ANGLE=0.00
		SCAN_DIAGONAL=NOT_DIAGONAL
		MEAS_PRESET=TIME_PRESET
		MEAS_TIME=10.000
		MEAS_UNIT=GY
		PRESSURE=1013.25
		TEMPERATURE=20.00
		NORM_TEMPERATURE=20.00
		CORRECTION_FACTOR=1.0000
		CORRECTIONS=AIR_DENSITY_CORR;
		BEGIN_DATA
			-60.00		8.1078E-03
			-30.00		10.327E-03
			30.00		10.075E-03
			60.00		7.0335E-03
		END_DATA
	END_SCAN  13
	BEGIN_SCAN  14
		TASK_NAME=MODE_INTERVAL
		PROGRAM=BeamAdjust 1.2
		MEAS_DATE=07-Oct-2010 14:15:51
		LINAC=A4
		MODALITY=X
		INPLANE_AXIS_DIR=TARGET_GUN
		CROSSPLANE_AXIS_DIR=LEFT_RIGHT
		DEPTH_AXIS_DIR=UP_DOWN
		ENERGY=6.00
		SSD=950.00
		WEDGE=None
		FIELD_INPLANE=100.00
		FIELD_CROSSPLANE=100.00
		FIELD_TYPE=RECTANGULAR
		GANTRY=0.00
		GANTRY_UPRIGHT_POSITION=0
		GANTRY_ROTATION=CW
		COLL_ANGLE=90.00
		COLL_OFFSET_INPLANE=0.00
		COLL_OFFSET_CROSSPLANE=0.00
		SCAN_DEVICE=STARCHECK
		ELECTROMETER=2D_ARRAY_INTERFACE
		DETECTOR=STARCHECK
		SCAN_CURVETYPE=INPLANE_PROFILE
		SCAN_DEPTH=0.00
		SCAN_OFFAXIS_CROSSPLANE=130.00
		SCAN_ANGLE=0.00
		SCAN_DIAGONAL=NOT_DIAGONAL
		MEAS_PRESET=TIME_PRESET
		MEAS_TIME=10.000
		MEAS_UNIT=GY
		PRESSURE=1013.25
		TEMPERATURE=20.00
		NORM_TEMPERATURE=20.00
		CORRECTION_FACTOR=1.0000
		CORRECTIONS=AIR_DENSITY_CORR;
		BEGIN_DATA
			-130.00		1.8477E-03
			-125.00		2.3682E-03
			-120.00		2.1950E-03
			-115.00		2.4899E-03
			-110.00		2.6151E-03
			-105.00		2.5957E-03
			-100.00		3.1175E-03
			-95.00		2.7626E-03
			-90.00		2.6762E-03
			-85.00		3.7812E-03
			-80.00		3.4041E-03
			-75.00		4.0237E-03
			-70.00		3.9809E-03
			-65.00		3.9215E-03
			-60.00		4.4650E-03
			-55.00		4.1908E-03
			-50.00		4.2413E-03
			-45.00		4.6353E-03
			-40.00		5.0368E-03
			-35.00		4.9977E-03
			-30.00		5.2889E-03
			-25.00		4.9268E-03
			-20.00		5.2733E-03
			-15.00		5.0593E-03
			-10.00		4.7107E-03
			-5.00		6.3805E-03
			0.00		5.8877E-03
			5.00		5.3954E-03
			10.00		5.6677E-03
			15.00		4.9921E-03
			20.00		5.3956E-03
			25.00		5.2789E-03
			30.00		4.9034E-03
			35.00		5.1354E-03
			40.00		5.3930E-03
			45.00		4.9176E-03
			50.00		4.7012E-03
			55.00		4.9685E-03
			60.00		4.5264E-03
			65.00		4.4092E-03
			70.00		3.9728E-03
			75.00		3.9976E-03
			80.00		3.8890E-03
			85.00		3.6495E-03
			90.00		3.3016E-03
			95.00		3.1871E-03
			100.00		3.4234E-03
			105.00		2.5995E-03
			110.00		2.5615E-03
			115.00		2.6386E-03
			120.00		2.5545E-03
			125.00		2.2550E-03
			130.00		2.1614E-03
		END_DATA
	END_SCAN  14
	BEGIN_SCAN  15
		TASK_NAME=MODE_INTERVAL
		PROGRAM=BeamAdjust 1.2
		MEAS_DATE=07-Oct-2010 14:15:51
		LINAC=A4
		MODALITY=X
		INPLANE_AXIS_DIR=TARGET_GUN
		CROSSPLANE_AXIS_DIR=LEFT_RIGHT
		DEPTH_AXIS_DIR=UP_DOWN
		ENERGY=6.00
		SSD=950.00
		WEDGE=None
		FIELD_INPLANE=100.00
		FIELD_CROSSPLANE=100.00
		FIELD_TYPE=RECTANGULAR
		GANTRY=0.00
		GANTRY_UPRIGHT_POSITION=0
		GANTRY_ROTATION=CW
		COLL_ANGLE=90.00
		COLL_OFFSET_INPLANE=0.00
		COLL_OFFSET_CROSSPLANE=0.00
		SCAN_DEVICE=STARCHECK
		ELECTROMETER=2D_ARRAY_INTERFACE
		DETECTOR=STARCHECK
		SCAN_CURVETYPE=INPLANE_PROFILE
		SCAN_DEPTH=0.00
		SCAN_OFFAXIS_CROSSPLANE=0.00
		SCAN_ANGLE=0.00
		SCAN_DIAGONAL=FIRST_DIAGONAL
		MEAS_PRESET=TIME_PRESET
		MEAS_TIME=10.000
		MEAS_UNIT=GY
		PRESSURE=1013.25
		TEMPERATURE=20.00
		NORM_TEMPERATURE=20.00
		CORRECTION_FACTOR=1.0000
		CORRECTIONS=AIR_DENSITY_CORR;
		BEGIN_DATA
			-172.40		2.4343E-03
			-169.40		2.9652E-03
			-166.40		3.7976E-03
			-163.40		3.4478E-03
			-160.40		3.9117E-03
			-157.40		3.7861E-03
			-154.40		3.6714E-03
			-151.40		3.9838E-03
			-148.40		4.5444E-03
			-145.40		4.9812E-03
			-142.40		5.6285E-03
			-139.40		5.8444E-03
			-136.40		5.9708E-03
			-133.40		6.9867E-03
			-130.40		7.2941E-03
			-127.40		7.7473E-03
			-124.40		8.6534E-03
			-121.40		8.9790E-03
			-118.40		9.8868E-03
			-115.40		10.753E-03
			-112.40		11.714E-03
			-109.40		12.937E-03
			-106.40		13.987E-03
			-103.40		14.846E-03
			-100.40		16.273E-03
			-97.40		18.677E-03
			-94.40		20.730E-03
			-91.40		23.037E-03
			-88.40		26.744E-03
			-85.40		29.499E-03
			-82.40		34.800E-03
			-79.40		43.552E-03
			-76.40		62.901E-03
			-73.40		134.06E-03
			-70.40		319.32E-03
			-67.40		501.05E-03
			-64.40		585.81E-03
			-61.40		617.09E-03
			-58.40		631.70E-03
			-55.40		641.25E-03
			-52.40		647.02E-03
			-49.40		651.72E-03
			-46.40		654.11E-03
			-43.40		656.05E-03
			-40.40		658.67E-03
			-37.40		663.15E-03
			-34.40		662.64E-03
			-31.40		664.32E-03
			-28.40		662.60E-03
			-25.40		665.45E-03
			-22.40		666.04E-03
			-19.40		667.21E-03
			-16.40		670.54E-03
			-13.40		671.81E-03
			0.00		669.13E-03
			13.40		671.36E-03
			16.40		667.22E-03
			19.40		667.53E-03
			22.40		665.99E-03
			25.40		664.97E-03
			28.40		663.41E-03
			31.40		660.67E-03
			34.40		657.34E-03
			37.40		659.42E-03
			40.40		656.72E-03
			43.40		652.79E-03
			46.40		650.21E-03
			49.40		643.22E-03
			52.40		636.68E-03
			55.40		619.85E-03
			58.40		593.18E-03
			61.40		521.82E-03
			64.40		375.05E-03
			67.40		195.94E-03
			70.40		84.750E-03
			73.40		51.046E-03
			76.40		38.637E-03
			79.40		32.251E-03
			82.40		27.889E-03
			85.40		24.473E-03
			88.40		22.495E-03
			91.40		19.559E-03
			94.40		17.852E-03
			97.40		16.102E-03
			100.40		14.555E-03
			103.40		14.344E-03
			106.40		12.430E-03
			109.40		11.344E-03
			112.40		9.8462E-03
			115.40		9.3347E-03
			118.40		8.3312E-03
			121.40		7.7636E-03
			124.40		7.3882E-03
			127.40		6.9743E-03
			130.40		6.8868E-03
			133.40		5.7723E-03
			136.40		4.9278E-03
			139.40		4.5820E-03
			142.40		4.4000E-03
			145.40		4.8070E-03
			148.40		4.3322E-03
			151.40		3.5805E-03
			154.40		3.6409E-03
			157.40		3.1287E-03
			160.40		2.3851E-03
			163.40		2.4324E-03
			166.40		2.6951E-03
			169.40		2.3704E-03
			172.40		2.5519E-03
		END_DATA
	END_SCAN  15
	BEGIN_SCAN  16
		TASK_NAME=MODE_INTERVAL
		PROGRAM=BeamAdjust 1.2
		MEAS_DATE=07-Oct-2010 14:15:51
		LINAC=A4
		MODALITY=X
		INPLANE_AXIS_DIR=GUN_TARGET
		CROSSPLANE_AXIS_DIR=LEFT_RIGHT
		DEPTH_AXIS_DIR=UP_DOWN
		ENERGY=6.00
		SSD=950.00
		WEDGE=None
		FIELD_INPLANE=100.00
		FIELD_CROSSPLANE=100.00
		FIELD_TYPE=RECTANGULAR
		GANTRY=0.00
		GANTRY_UPRIGHT_POSITION=0
		GANTRY_ROTATION=CW
		COLL_ANGLE=90.00
		COLL_OFFSET_INPLANE=0.00
		COLL_OFFSET_CROSSPLANE=0.00
		SCAN_DEVICE=STARCHECK
		ELECTROMETER=2D_ARRAY_INTERFACE
		DETECTOR=STARCHECK
		SCAN_CURVETYPE=INPLANE_PROFILE
		SCAN_DEPTH=0.00
		SCAN_OFFAXIS_CROSSPLANE=0.00
		SCAN_ANGLE=0.00
		SCAN_DIAGONAL=SECOND_DIAGONAL
		MEAS_PRESET=TIME_PRESET
		MEAS_TIME=10.000
		MEAS_UNIT=GY
		PRESSURE=1013.25
		TEMPERATURE=20.00
		NORM_TEMPERATURE=20.00
		CORRECTION_FACTOR=1.0000
		CORRECTIONS=AIR_DENSITY_CORR;
		BEGIN_DATA
			-172.40		2.9380E-03
			-169.40		3.1870E-03
			-166.40		3.1334E-03
			-163.40		3.1961E-03
			-160.40		3.6520E-03
			-157.40		3.9019E-03
			-154.40		4.1145E-03
			-151.40		4.5289E-03
			-148.40		4.8371E-03
			-145.40		5.0851E-03
			-142.40		5.5769E-03
			-139.40		5.7472E-03
			-136.40		6.6685E-03
			-133.40		7.0744E-03
			-130.40		7.4471E-03
			-127.40		8.2410E-03
			-124.40		8.9645E-03
			-121.40		9.4998E-03
			-118.40		10.126E-03
			-115.40		10.531E-03
			-112.40		11.406E-03
			-109.40		12.789E-03
			-106.40		14.116E-03
			-103.40		15.191E-03
			-100.40		17.025E-03
			-97.40		18.492E-03
			-94.40		20.691E-03
			-91.40		22.595E-03
			-88.40		24.852E-03
			-85.40		28.327E-03
			-82.40		33.042E-03
			-79.40		40.616E-03
			-76.40		55.346E-03
			-73.40		101.57E-03
			-70.40		253.78E-03
			-67.40		450.16E-03
			-64.40		569.14E-03
			-61.40		614.17E-03
			-58.40		634.96E-03
			-55.40		643.70E-03
			-52.40		654.34E-03
			-49.40		657.47E-03
			-46.40		660.32E-03
			-43.40		662.89E-03
			-40.40		664.52E-03
			-37.40		667.77E-03
			-34.40		666.55E-03
			-31.40		667.28E-03
			-28.40		669.47E-03
			-25.40		668.18E-03
			-22.40		666.37E-03
			-19.40		670.12E-03
			-16.40		671.72E-03
			-13.40		673.87E-03
			0.00		669.13E-03
			13.40		671.46E-03
			16.40		667.84E-03
			19.40		665.02E-03
			22.40		662.30E-03
			25.40		662.25E-03
			28.40		660.78E-03
			31.40		659.17E-03
			34.40		655.72E-03
			37.40		654.94E-03
			40.40		653.12E-03
			43.40		650.61E-03
			46.40		647.87E-03
			49.40		642.94E-03
			52.40		632.69E-03
			55.40		620.58E-03
			58.40		598.70E-03
			61.40		537.05E-03
			64.40		402.58E-03
			67.40		217.93E-03
			70.40		92.860E-03
			73.40		53.026E-03
			76.40		39.591E-03
			79.40		32.814E-03
			82.40		29.183E-03
			85.40		25.840E-03
			88.40		22.992E-03
			91.40		21.064E-03
			94.40		18.750E-03
			97.40		17.574E-03
			100.40		14.743E-03
			103.40		13.491E-03
			106.40		12.885E-03
			109.40		11.665E-03
			112.40		10.937E-03
			115.40		10.076E-03
			118.40		9.1637E-03
			121.40		8.3189E-03
			124.40		7.6907E-03
			127.40		7.2697E-03
			130.40		7.4249E-03
			133.40		6.5999E-03
			136.40		6.0690E-03
			139.40		6.2648E-03
			142.40		5.6594E-03
			145.40		5.3983E-03
			148.40		4.8456E-03
			151.40		4.2395E-03
			154.40		4.2361E-03
			157.40		3.9855E-03
			160.40		3.7107E-03
			163.40		3.9620E-03
			166.40		3.6185E-03
			169.40		2.8735E-03
			172.40		2.6754E-03
		END_DATA
	END_SCAN  16
END_SCAN_DATA
