BEGIN_SCAN_DATA
	FORMAT=CC-Export V1.9                  
	FILE_CREATION_DATE=07-Oct-2010 14:15:24
	LAST_MODIFIED=07-Oct-2010 14:15:24
	BEGIN_SCAN  1
		TASK_NAME=MODE_INTERVAL
		PROGRAM=BeamAdjust 1.2
		MEAS_DATE=07-Oct-2010 14:15:24
		LINAC=A4
		MODALITY=X
		INPLANE_AXIS_DIR=TARGET_GUN
		CROSSPLANE_AXIS_DIR=LEFT_RIGHT
		DEPTH_AXIS_DIR=UP_DOWN
		ENERGY=6.00
		SSD=950.00
		WEDGE=None
		FIELD_INPLANE=100.00
		FIELD_CROSSPLANE=100.00
		FIELD_TYPE=RECTANGULAR
		GANTRY=0.00
		GANTRY_UPRIGHT_POSITION=0
		GANTRY_ROTATION=CW
		COLL_ANGLE=90.00
		COLL_OFFSET_INPLANE=0.00
		COLL_OFFSET_CROSSPLANE=0.00
		SCAN_DEVICE=STARCHECK
		ELECTROMETER=2D_ARRAY_INTERFACE
		DETECTOR=STARCHECK
		SCAN_CURVETYPE=CROSSPLANE_PROFILE
		SCAN_DEPTH=0.00
		SCAN_OFFAXIS_INPLANE=-130.00
		SCAN_ANGLE=0.00
		SCAN_DIAGONAL=NOT_DIAGONAL
		MEAS_PRESET=TIME_PRESET
		MEAS_TIME=10.000
		MEAS_UNIT=GY
		PRESSURE=1013.25
		TEMPERATURE=20.00
		NORM_TEMPERATURE=20.00
		CORRECTION_FACTOR=1.0000
		CORRECTIONS=AIR_DENSITY_CORR;
		BEGIN_DATA
			-130.00		2.8238E-03
			-80.00		4.2120E-03
			-40.00		7.4542E-03
			40.00		6.9949E-03
			80.00		4.1977E-03
			130.00		1.8207E-03
		END_DATA
	END_SCAN  1
	BEGIN_SCAN  2
		TASK_NAME=MODE_INTERVAL
		PROGRAM=BeamAdjust 1.2
		MEAS_DATE=07-Oct-2010 14:15:24
		LINAC=A4
		MODALITY=X
		INPLANE_AXIS_DIR=TARGET_GUN
		CROSSPLANE_AXIS_DIR=LEFT_RIGHT
		DEPTH_AXIS_DIR=UP_DOWN
		ENERGY=6.00
		SSD=950.00
		WEDGE=None
		FIELD_INPLANE=100.00
		FIELD_CROSSPLANE=100.00
		FIELD_TYPE=RECTANGULAR
		GANTRY=0.00
		GANTRY_UPRIGHT_POSITION=0
		GANTRY_ROTATION=CW
		COLL_ANGLE=90.00
		COLL_OFFSET_INPLANE=0.00
		COLL_OFFSET_CROSSPLANE=0.00
		SCAN_DEVICE=STARCHECK
		ELECTROMETER=2D_ARRAY_INTERFACE
		DETECTOR=STARCHECK
		SCAN_CURVETYPE=CROSSPLANE_PROFILE
		SCAN_DEPTH=0.00
		SCAN_OFFAXIS_INPLANE=-100.00
		SCAN_ANGLE=0.00
		SCAN_DIAGONAL=NOT_DIAGONAL
		MEAS_PRESET=TIME_PRESET
		MEAS_TIME=10.000
		MEAS_UNIT=GY
		PRESSURE=1013.25
		TEMPERATURE=20.00
		NORM_TEMPERATURE=20.00
		CORRECTION_FACTOR=1.0000
		CORRECTIONS=AIR_DENSITY_CORR;
		BEGIN_DATA
			-60.00		10.948E-03
			-30.00		15.397E-03
			30.00		15.434E-03
			60.00		11.053E-03
		END_DATA
	END_SCAN  2
	BEGIN_SCAN  3
		TASK_NAME=MODE_INTERVAL
		PROGRAM=BeamAdjust 1.2
		MEAS_DATE=07-Oct-2010 14:15:24
		LINAC=A4
		MODALITY=X
		INPLANE_AXIS_DIR=TARGET_GUN
		CROSSPLANE_AXIS_DIR=LEFT_RIGHT
		DEPTH_AXIS_DIR=UP_DOWN
		ENERGY=6.00
		SSD=950.00
		WEDGE=None
		FIELD_INPLANE=100.00
		FIELD_CROSSPLANE=100.00
		FIELD_TYPE=RECTANGULAR
		GANTRY=0.00
		GANTRY_UPRIGHT_POSITION=0
		GANTRY_ROTATION=CW
		COLL_ANGLE=90.00
		COLL_OFFSET_INPLANE=0.00
		COLL_OFFSET_CROSSPLANE=0.00
		SCAN_DEVICE=STARCHECK
		ELECTROMETER=2D_ARRAY_INTERFACE
		DETECTOR=STARCHECK
		SCAN_CURVETYPE=CROSSPLANE_PROFILE
		SCAN_DEPTH=0.00
		SCAN_OFFAXIS_INPLANE=-50.00
		SCAN_ANGLE=0.00
		SCAN_DIAGONAL=NOT_DIAGONAL
		MEAS_PRESET=TIME_PRESET
		MEAS_TIME=10.000
		MEAS_UNIT=GY
		PRESSURE=1013.25
		TEMPERATURE=20.00
		NORM_TEMPERATURE=20.00
		CORRECTION_FACTOR=1.0000
		CORRECTIONS=AIR_DENSITY_CORR;
		BEGIN_DATA
			-30.00		560.83E-03
			-15.00		534.20E-03
			15.00		557.33E-03
			30.00		560.21E-03
		END_DATA
	END_SCAN  3
	BEGIN_SCAN  4
		TASK_NAME=MODE_INTERVAL
		PROGRAM=BeamAdjust 1.2
		MEAS_DATE=07-Oct-2010 14:15:24
		LINAC=A4
		MODALITY=X
		INPLANE_AXIS_DIR=TARGET_GUN
		CROSSPLANE_AXIS_DIR=LEFT_RIGHT
		DEPTH_AXIS_DIR=UP_DOWN
		ENERGY=6.00
		SSD=950.00
		WEDGE=None
		FIELD_INPLANE=100.00
		FIELD_CROSSPLANE=100.00
		FIELD_TYPE=RECTANGULAR
		GANTRY=0.00
		GANTRY_UPRIGHT_POSITION=0
		GANTRY_ROTATION=CW
		COLL_ANGLE=90.00
		COLL_OFFSET_INPLANE=0.00
		COLL_OFFSET_CROSSPLANE=0.00
		SCAN_DEVICE=STARCHECK
		ELECTROMETER=2D_ARRAY_INTERFACE
		DETECTOR=STARCHECK
		SCAN_CURVETYPE=CROSSPLANE_PROFILE
		SCAN_DEPTH=0.00
		SCAN_OFFAXIS_INPLANE=0.00
		SCAN_ANGLE=0.00
		SCAN_DIAGONAL=NOT_DIAGONAL
		MEAS_PRESET=TIME_PRESET
		MEAS_TIME=10.000
		MEAS_UNIT=GY
		PRESSURE=1013.25
		TEMPERATURE=20.00
		NORM_TEMPERATURE=20.00
		CORRECTION_FACTOR=1.0000
		CORRECTIONS=AIR_DENSITY_CORR;
		BEGIN_DATA
			-126.00		6.5230E-03
			-123.00		7.4891E-03
			-120.00		7.8065E-03
			-117.00		8.6475E-03
			-114.00		8.8545E-03
			-111.00		9.3912E-03
			-108.00		10.366E-03
			-105.00		10.985E-03
			-102.00		11.799E-03
			-99.00		12.970E-03
			-96.00		14.031E-03
			-93.00		15.366E-03
			-90.00		16.955E-03
			-87.00		18.297E-03
			-84.00		20.455E-03
			-81.00		22.033E-03
			-78.00		24.093E-03
			-75.00		27.127E-03
			-72.00		29.961E-03
			-69.00		34.278E-03
			-66.00		39.523E-03
			-63.00		45.445E-03
			-60.00		55.130E-03
			-57.00		72.704E-03
			-54.00		114.51E-03
			-51.00		292.36E-03
			-48.00		555.82E-03
			-45.00		616.96E-03
			-42.00		636.17E-03
			-39.00		648.66E-03
			-36.00		654.77E-03
			-33.00		655.02E-03
			-30.00		656.76E-03
			-27.00		659.37E-03
			-24.00		661.82E-03
			-21.00		661.34E-03
			-18.00		667.28E-03
			-15.00		667.47E-03
			-12.00		666.92E-03
			-9.00		669.97E-03
			-6.00		669.64E-03
			0.00		669.05E-03
			6.00		671.86E-03
			9.00		670.80E-03
			12.00		668.13E-03
			15.00		667.25E-03
			18.00		666.66E-03
			21.00		664.85E-03
			24.00		661.48E-03
			27.00		665.51E-03
			30.00		663.47E-03
			33.00		661.56E-03
			36.00		657.80E-03
			39.00		651.91E-03
			42.00		640.24E-03
			45.00		615.74E-03
			48.00		525.45E-03
			51.00		231.66E-03
			54.00		101.90E-03
			57.00		68.166E-03
			60.00		53.040E-03
			63.00		44.122E-03
			66.00		37.503E-03
			69.00		32.963E-03
			72.00		29.363E-03
			75.00		26.379E-03
			78.00		23.556E-03
			81.00		21.255E-03
			84.00		19.449E-03
			87.00		18.066E-03
			90.00		16.507E-03
			93.00		14.888E-03
			96.00		13.263E-03
			99.00		12.400E-03
			102.00		11.739E-03
			105.00		10.573E-03
			108.00		10.372E-03
			111.00		9.0390E-03
			114.00		8.6731E-03
			117.00		8.0346E-03
			120.00		7.2661E-03
			123.00		7.0242E-03
			126.00		7.0694E-03
		END_DATA
	END_SCAN  4
	BEGIN_SCAN  5
		TASK_NAME=MODE_INTERVAL
		PROGRAM=BeamAdjust 1.2
		MEAS_DATE=07-Oct-2010 14:15:24
		LINAC=A4
		MODALITY=X
		INPLANE_AXIS_DIR=TARGET_GUN
		CROSSPLANE_AXIS_DIR=LEFT_RIGHT
		DEPTH_AXIS_DIR=UP_DOWN
		ENERGY=6.00
		SSD=950.00
		WEDGE=None
		FIELD_INPLANE=100.00
		FIELD_CROSSPLANE=100.00
		FIELD_TYPE=RECTANGULAR
		GANTRY=0.00
		GANTRY_UPRIGHT_POSITION=0
		GANTRY_ROTATION=CW
		COLL_ANGLE=90.00
		COLL_OFFSET_INPLANE=0.00
		COLL_OFFSET_CROSSPLANE=0.00
		SCAN_DEVICE=STARCHECK
		ELECTROMETER=2D_ARRAY_INTERFACE
		DETECTOR=STARCHECK
		SCAN_CURVETYPE=CROSSPLANE_PROFILE
		SCAN_DEPTH=0.00
		SCAN_OFFAXIS_INPLANE=50.00
		SCAN_ANGLE=0.00
		SCAN_DIAGONAL=NOT_DIAGONAL
		MEAS_PRESET=TIME_PRESET
		MEAS_TIME=10.000
		MEAS_UNIT=GY
		PRESSURE=1013.25
		TEMPERATURE=20.00
		NORM_TEMPERATURE=20.00
		CORRECTION_FACTOR=1.0000
		CORRECTIONS=AIR_DENSITY_CORR;
		BEGIN_DATA
			-30.00		134.81E-03
			-15.00		138.81E-03
			15.00		125.55E-03
			30.00		129.74E-03
		END_DATA
	END_SCAN  5
	BEGIN_SCAN  6
		TASK_NAME=MODE_INTERVAL
		PROGRAM=BeamAdjust 1.2
		MEAS_DATE=07-Oct-2010 14:15:24
		LINAC=A4
		MODALITY=X
		INPLANE_AXIS_DIR=TARGET_GUN
		CROSSPLANE_AXIS_DIR=LEFT_RIGHT
		DEPTH_AXIS_DIR=UP_DOWN
		ENERGY=6.00
		SSD=950.00
		WEDGE=None
		FIELD_INPLANE=100.00
		FIELD_CROSSPLANE=100.00
		FIELD_TYPE=RECTANGULAR
		GANTRY=0.00
		GANTRY_UPRIGHT_POSITION=0
		GANTRY_ROTATION=CW
		COLL_ANGLE=90.00
		COLL_OFFSET_INPLANE=0.00
		COLL_OFFSET_CROSSPLANE=0.00
		SCAN_DEVICE=STARCHECK
		ELECTROMETER=2D_ARRAY_INTERFACE
		DETECTOR=STARCHECK
		SCAN_CURVETYPE=CROSSPLANE_PROFILE
		SCAN_DEPTH=0.00
		SCAN_OFFAXIS_INPLANE=100.00
		SCAN_ANGLE=0.00
		SCAN_DIAGONAL=NOT_DIAGONAL
		MEAS_PRESET=TIME_PRESET
		MEAS_TIME=10.000
		MEAS_UNIT=GY
		PRESSURE=1013.25
		TEMPERATURE=20.00
		NORM_TEMPERATURE=20.00
		CORRECTION_FACTOR=1.0000
		CORRECTIONS=AIR_DENSITY_CORR;
		BEGIN_DATA
			-60.00		9.7854E-03
			-30.00		14.069E-03
			30.00		13.980E-03
			60.00		8.7520E-03
		END_DATA
	END_SCAN  6
	BEGIN_SCAN  7
		TASK_NAME=MODE_INTERVAL
		PROGRAM=BeamAdjust 1.2
		MEAS_DATE=07-Oct-2010 14:15:24
		LINAC=A4
		MODALITY=X
		INPLANE_AXIS_DIR=TARGET_GUN
		CROSSPLANE_AXIS_DIR=LEFT_RIGHT
		DEPTH_AXIS_DIR=UP_DOWN
		ENERGY=6.00
		SSD=950.00
		WEDGE=None
		FIELD_INPLANE=100.00
		FIELD_CROSSPLANE=100.00
		FIELD_TYPE=RECTANGULAR
		GANTRY=0.00
		GANTRY_UPRIGHT_POSITION=0
		GANTRY_ROTATION=CW
		COLL_ANGLE=90.00
		COLL_OFFSET_INPLANE=0.00
		COLL_OFFSET_CROSSPLANE=0.00
		SCAN_DEVICE=STARCHECK
		ELECTROMETER=2D_ARRAY_INTERFACE
		DETECTOR=STARCHECK
		SCAN_CURVETYPE=CROSSPLANE_PROFILE
		SCAN_DEPTH=0.00
		SCAN_OFFAXIS_INPLANE=130.00
		SCAN_ANGLE=0.00
		SCAN_DIAGONAL=NOT_DIAGONAL
		MEAS_PRESET=TIME_PRESET
		MEAS_TIME=10.000
		MEAS_UNIT=GY
		PRESSURE=1013.25
		TEMPERATURE=20.00
		NORM_TEMPERATURE=20.00
		CORRECTION_FACTOR=1.0000
		CORRECTIONS=AIR_DENSITY_CORR;
		BEGIN_DATA
			-130.00		1.7217E-03
			-80.00		3.8355E-03
			-40.00		7.4214E-03
			40.00		6.8276E-03
			80.00		4.2158E-03
			130.00		2.7867E-03
		END_DATA
	END_SCAN  7
	BEGIN_SCAN  8
		TASK_NAME=MODE_INTERVAL
		PROGRAM=BeamAdjust 1.2
		MEAS_DATE=07-Oct-2010 14:15:24
		LINAC=A4
		MODALITY=X
		INPLANE_AXIS_DIR=TARGET_GUN
		CROSSPLANE_AXIS_DIR=LEFT_RIGHT
		DEPTH_AXIS_DIR=UP_DOWN
		ENERGY=6.00
		SSD=950.00
		WEDGE=None
		FIELD_INPLANE=100.00
		FIELD_CROSSPLANE=100.00
		FIELD_TYPE=RECTANGULAR
		GANTRY=0.00
		GANTRY_UPRIGHT_POSITION=0
		GANTRY_ROTATION=CW
		COLL_ANGLE=90.00
		COLL_OFFSET_INPLANE=0.00
		COLL_OFFSET_CROSSPLANE=0.00
		SCAN_DEVICE=STARCHECK
		ELECTROMETER=2D_ARRAY_INTERFACE
		DETECTOR=STARCHECK
		SCAN_CURVETYPE=INPLANE_PROFILE
		SCAN_DEPTH=0.00
		SCAN_OFFAXIS_CROSSPLANE=-130.00
		SCAN_ANGLE=0.00
		SCAN_DIAGONAL=NOT_DIAGONAL
		MEAS_PRESET=TIME_PRESET
		MEAS_TIME=10.000
		MEAS_UNIT=GY
		PRESSURE=1013.25
		TEMPERATURE=20.00
		NORM_TEMPERATURE=20.00
		CORRECTION_FACTOR=1.0000
		CORRECTIONS=AIR_DENSITY_CORR;
		BEGIN_DATA
			-130.00		2.8238E-03
			-125.00		2.9223E-03
			-120.00		3.3113E-03
			-115.00		3.7739E-03
			-110.00		3.6011E-03
			-105.00		3.9864E-03
			-100.00		4.3945E-03
			-95.00		4.6724E-03
			-90.00		5.2743E-03
			-85.00		4.6100E-03
			-80.00		4.4196E-03
			-75.00		5.0647E-03
			-70.00		5.0602E-03
			-65.00		5.0360E-03
			-60.00		5.2515E-03
			-55.00		5.8829E-03
			-50.00		4.3471E-03
			-45.00		4.4993E-03
			-40.00		4.6420E-03
			-35.00		5.3361E-03
			-30.00		5.1688E-03
			-25.00		5.0956E-03
			-20.00		5.1892E-03
			-15.00		4.7176E-03
			-10.00		5.1150E-03
			-5.00		6.1541E-03
			0.00		5.7244E-03
			5.00		6.1427E-03
			10.00		5.5352E-03
			15.00		5.4914E-03
			20.00		5.6575E-03
			25.00		5.1074E-03
			30.00		5.5976E-03
			35.00		5.4659E-03
			40.00		5.0908E-03
			45.00		5.0930E-03
			50.00		4.9953E-03
			55.00		4.5463E-03
			60.00		4.6696E-03
			65.00		4.1215E-03
			70.00		3.9582E-03
			75.00		4.1278E-03
			80.00		3.6191E-03
			85.00		3.6514E-03
			90.00		3.3272E-03
			95.00		3.3341E-03
			100.00		3.0116E-03
			105.00		2.3515E-03
			110.00		2.4367E-03
			115.00		2.5401E-03
			120.00		2.3624E-03
			125.00		2.1429E-03
			130.00		1.7217E-03
		END_DATA
	END_SCAN  8
	BEGIN_SCAN  9
		TASK_NAME=MODE_INTERVAL
		PROGRAM=BeamAdjust 1.2
		MEAS_DATE=07-Oct-2010 14:15:24
		LINAC=A4
		MODALITY=X
		INPLANE_AXIS_DIR=TARGET_GUN
		CROSSPLANE_AXIS_DIR=LEFT_RIGHT
		DEPTH_AXIS_DIR=UP_DOWN
		ENERGY=6.00
		SSD=950.00
		WEDGE=None
		FIELD_INPLANE=100.00
		FIELD_CROSSPLANE=100.00
		FIELD_TYPE=RECTANGULAR
		GANTRY=0.00
		GANTRY_UPRIGHT_POSITION=0
		GANTRY_ROTATION=CW
		COLL_ANGLE=90.00
		COLL_OFFSET_INPLANE=0.00
		COLL_OFFSET_CROSSPLANE=0.00
		SCAN_DEVICE=STARCHECK
		ELECTROMETER=2D_ARRAY_INTERFACE
		DETECTOR=STARCHECK
		SCAN_CURVETYPE=INPLANE_PROFILE
		SCAN_DEPTH=0.00
		SCAN_OFFAXIS_CROSSPLANE=-100.00
		SCAN_ANGLE=0.00
		SCAN_DIAGONAL=NOT_DIAGONAL
		MEAS_PRESET=TIME_PRESET
		MEAS_TIME=10.000
		MEAS_UNIT=GY
		PRESSURE=1013.25
		TEMPERATURE=20.00
		NORM_TEMPERATURE=20.00
		CORRECTION_FACTOR=1.0000
		CORRECTIONS=AIR_DENSITY_CORR;
		BEGIN_DATA
			-60.00		8.5534E-03
			-30.00		10.513E-03
			30.00		9.9877E-03
			60.00		7.7846E-03
		END_DATA
	END_SCAN  9
	BEGIN_SCAN  10
		TASK_NAME=MODE_INTERVAL
		PROGRAM=BeamAdjust 1.2
		MEAS_DATE=07-Oct-2010 14:15:24
		LINAC=A4
		MODALITY=X
		INPLANE_AXIS_DIR=TARGET_GUN
		CROSSPLANE_AXIS_DIR=LEFT_RIGHT
		DEPTH_AXIS_DIR=UP_DOWN
		ENERGY=6.00
		SSD=950.00
		WEDGE=None
		FIELD_INPLANE=100.00
		FIELD_CROSSPLANE=100.00
		FIELD_TYPE=RECTANGULAR
		GANTRY=0.00
		GANTRY_UPRIGHT_POSITION=0
		GANTRY_ROTATION=CW
		COLL_ANGLE=90.00
		COLL_OFFSET_INPLANE=0.00
		COLL_OFFSET_CROSSPLANE=0.00
		SCAN_DEVICE=STARCHECK
		ELECTROMETER=2D_ARRAY_INTERFACE
		DETECTOR=STARCHECK
		SCAN_CURVETYPE=INPLANE_PROFILE
		SCAN_DEPTH=0.00
		SCAN_OFFAXIS_CROSSPLANE=-50.00
		SCAN_ANGLE=0.00
		SCAN_DIAGONAL=NOT_DIAGONAL
		MEAS_PRESET=TIME_PRESET
		MEAS_TIME=10.000
		MEAS_UNIT=GY
		PRESSURE=1013.25
		TEMPERATURE=20.00
		NORM_TEMPERATURE=20.00
		CORRECTION_FACTOR=1.0000
		CORRECTIONS=AIR_DENSITY_CORR;
		BEGIN_DATA
			-30.00		399.65E-03
			-15.00		395.39E-03
			15.00		384.23E-03
			30.00		372.52E-03
		END_DATA
	END_SCAN  10
	BEGIN_SCAN  11
		TASK_NAME=MODE_INTERVAL
		PROGRAM=BeamAdjust 1.2
		MEAS_DATE=07-Oct-2010 14:15:24
		LINAC=A4
		MODALITY=X
		INPLANE_AXIS_DIR=TARGET_GUN
		CROSSPLANE_AXIS_DIR=LEFT_RIGHT
		DEPTH_AXIS_DIR=UP_DOWN
		ENERGY=6.00
		SSD=950.00
		WEDGE=None
		FIELD_INPLANE=100.00
		FIELD_CROSSPLANE=100.00
		FIELD_TYPE=RECTANGULAR
		GANTRY=0.00
		GANTRY_UPRIGHT_POSITION=0
		GANTRY_ROTATION=CW
		COLL_ANGLE=90.00
		COLL_OFFSET_INPLANE=0.00
		COLL_OFFSET_CROSSPLANE=0.00
		SCAN_DEVICE=STARCHECK
		ELECTROMETER=2D_ARRAY_INTERFACE
		DETECTOR=STARCHECK
		SCAN_CURVETYPE=INPLANE_PROFILE
		SCAN_DEPTH=0.00
		SCAN_OFFAXIS_CROSSPLANE=0.00
		SCAN_ANGLE=0.00
		SCAN_DIAGONAL=NOT_DIAGONAL
		MEAS_PRESET=TIME_PRESET
		MEAS_TIME=10.000
		MEAS_UNIT=GY
		PRESSURE=1013.25
		TEMPERATURE=20.00
		NORM_TEMPERATURE=20.00
		CORRECTION_FACTOR=1.0000
		CORRECTIONS=AIR_DENSITY_CORR;
		BEGIN_DATA
			-126.00		9.4635E-03
			-123.00		9.2025E-03
			-120.00		10.666E-03
			-117.00		11.649E-03
			-114.00		12.328E-03
			-111.00		13.035E-03
			-108.00		14.305E-03
			-105.00		15.355E-03
			-102.00		16.982E-03
			-99.00		17.766E-03
			-96.00		19.104E-03
			-93.00		21.563E-03
			-90.00		23.170E-03
			-87.00		25.583E-03
			-84.00		27.307E-03
			-81.00		30.195E-03
			-78.00		32.859E-03
			-75.00		35.734E-03
			-72.00		39.947E-03
			-69.00		44.242E-03
			-66.00		51.054E-03
			-63.00		60.095E-03
			-60.00		76.517E-03
			-57.00		117.67E-03
			-54.00		252.00E-03
			-51.00		519.24E-03
			-48.00		617.58E-03
			-45.00		642.14E-03
			-42.00		651.74E-03
			-39.00		657.64E-03
			-36.00		661.45E-03
			-33.00		663.52E-03
			-30.00		666.65E-03
			-27.00		667.33E-03
			-24.00		666.63E-03
			-21.00		666.29E-03
			-18.00		673.37E-03
			-15.00		670.62E-03
			-12.00		670.13E-03
			-9.00		670.17E-03
			-6.00		667.66E-03
			0.00		669.05E-03
			6.00		673.31E-03
			9.00		671.33E-03
			12.00		668.94E-03
			15.00		666.78E-03
			18.00		663.46E-03
			21.00		663.14E-03
			24.00		659.30E-03
			27.00		660.22E-03
			30.00		655.09E-03
			33.00		651.72E-03
			36.00		647.07E-03
			39.00		631.84E-03
			42.00		604.84E-03
			45.00		487.47E-03
			48.00		222.91E-03
			51.00		109.91E-03
			54.00		73.067E-03
			57.00		58.578E-03
			60.00		50.127E-03
			63.00		44.093E-03
			66.00		39.631E-03
			69.00		35.253E-03
			72.00		32.366E-03
			75.00		29.163E-03
			78.00		26.054E-03
			81.00		24.362E-03
			84.00		22.738E-03
			87.00		20.976E-03
			90.00		19.742E-03
			93.00		17.768E-03
			96.00		16.520E-03
			99.00		15.171E-03
			102.00		13.555E-03
			105.00		12.639E-03
			108.00		12.352E-03
			111.00		11.154E-03
			114.00		10.431E-03
			117.00		9.6385E-03
			120.00		8.9696E-03
			123.00		8.4728E-03
			126.00		7.6121E-03
		END_DATA
	END_SCAN  11
	BEGIN_SCAN  12
		TASK_NAME=MODE_INTERVAL
		PROGRAM=BeamAdjust 1.2
		MEAS_DATE=07-Oct-2010 14:15:24
		LINAC=A4
		MODALITY=X
		INPLANE_AXIS_DIR=TARGET_GUN
		CROSSPLANE_AXIS_DIR=LEFT_RIGHT
		DEPTH_AXIS_DIR=UP_DOWN
		ENERGY=6.00
		SSD=950.00
		WEDGE=None
		FIELD_INPLANE=100.00
		FIELD_CROSSPLANE=100.00
		FIELD_TYPE=RECTANGULAR
		GANTRY=0.00
		GANTRY_UPRIGHT_POSITION=0
		GANTRY_ROTATION=CW
		COLL_ANGLE=90.00
		COLL_OFFSET_INPLANE=0.00
		COLL_OFFSET_CROSSPLANE=0.00
		SCAN_DEVICE=STARCHECK
		ELECTROMETER=2D_ARRAY_INTERFACE
		DETECTOR=STARCHECK
		SCAN_CURVETYPE=INPLANE_PROFILE
		SCAN_DEPTH=0.00
		SCAN_OFFAXIS_CROSSPLANE=50.00
		SCAN_ANGLE=0.00
		SCAN_DIAGONAL=NOT_DIAGONAL
		MEAS_PRESET=TIME_PRESET
		MEAS_TIME=10.000
		MEAS_UNIT=GY
		PRESSURE=1013.25
		TEMPERATURE=20.00
		NORM_TEMPERATURE=20.00
		CORRECTION_FACTOR=1.0000
		CORRECTIONS=AIR_DENSITY_CORR;
		BEGIN_DATA
			-30.00		326.72E-03
			-15.00		335.02E-03
			15.00		342.09E-03
			30.00		342.31E-03
		END_DATA
	END_SCAN  12
	BEGIN_SCAN  13
		TASK_NAME=MODE_INTERVAL
		PROGRAM=BeamAdjust 1.2
		MEAS_DATE=07-Oct-2010 14:15:24
		LINAC=A4
		MODALITY=X
		INPLANE_AXIS_DIR=TARGET_GUN
		CROSSPLANE_AXIS_DIR=LEFT_RIGHT
		DEPTH_AXIS_DIR=UP_DOWN
		ENERGY=6.00
		SSD=950.00
		WEDGE=None
		FIELD_INPLANE=100.00
		FIELD_CROSSPLANE=100.00
		FIELD_TYPE=RECTANGULAR
		GANTRY=0.00
		GANTRY_UPRIGHT_POSITION=0
		GANTRY_ROTATION=CW
		COLL_ANGLE=90.00
		COLL_OFFSET_INPLANE=0.00
		COLL_OFFSET_CROSSPLANE=0.00
		SCAN_DEVICE=STARCHECK
		ELECTROMETER=2D_ARRAY_INTERFACE
		DETECTOR=STARCHECK
		SCAN_CURVETYPE=INPLANE_PROFILE
		SCAN_DEPTH=0.00
		SCAN_OFFAXIS_CROSSPLANE=100.00
		SCAN_ANGLE=0.00
		SCAN_DIAGONAL=NOT_DIAGONAL
		MEAS_PRESET=TIME_PRESET
		MEAS_TIME=10.000
		MEAS_UNIT=GY
		PRESSURE=1013.25
		TEMPERATURE=20.00
		NORM_TEMPERATURE=20.00
		CORRECTION_FACTOR=1.0000
		CORRECTIONS=AIR_DENSITY_CORR;
		BEGIN_DATA
			-60.00		8.4022E-03
			-30.00		10.707E-03
			30.00		10.491E-03
			60.00		7.3738E-03
		END_DATA
	END_SCAN  13
	BEGIN_SCAN  14
		TASK_NAME=MODE_INTERVAL
		PROGRAM=BeamAdjust 1.2
		MEAS_DATE=07-Oct-2010 14:15:24
		LINAC=A4
		MODALITY=X
		INPLANE_AXIS_DIR=TARGET_GUN
		CROSSPLANE_AXIS_DIR=LEFT_RIGHT
		DEPTH_AXIS_DIR=UP_DOWN
		ENERGY=6.00
		SSD=950.00
		WEDGE=None
		FIELD_INPLANE=100.00
		FIELD_CROSSPLANE=100.00
		FIELD_TYPE=RECTANGULAR
		GANTRY=0.00
		GANTRY_UPRIGHT_POSITION=0
		GANTRY_ROTATION=CW
		COLL_ANGLE=90.00
		COLL_OFFSET_INPLANE=0.00
		COLL_OFFSET_CROSSPLANE=0.00
		SCAN_DEVICE=STARCHECK
		ELECTROMETER=2D_ARRAY_INTERFACE
		DETECTOR=STARCHECK
		SCAN_CURVETYPE=INPLANE_PROFILE
		SCAN_DEPTH=0.00
		SCAN_OFFAXIS_CROSSPLANE=130.00
		SCAN_ANGLE=0.00
		SCAN_DIAGONAL=NOT_DIAGONAL
		MEAS_PRESET=TIME_PRESET
		MEAS_TIME=10.000
		MEAS_UNIT=GY
		PRESSURE=1013.25
		TEMPERATURE=20.00
		NORM_TEMPERATURE=20.00
		CORRECTION_FACTOR=1.0000
		CORRECTIONS=AIR_DENSITY_CORR;
		BEGIN_DATA
			-130.00		1.8207E-03
			-125.00		2.4024E-03
			-120.00		2.2970E-03
			-115.00		2.4410E-03
			-110.00		2.4646E-03
			-105.00		2.6597E-03
			-100.00		2.9867E-03
			-95.00		2.8057E-03
			-90.00		2.6140E-03
			-85.00		3.7090E-03
			-80.00		3.9984E-03
			-75.00		3.6617E-03
			-70.00		4.0428E-03
			-65.00		3.8846E-03
			-60.00		5.0305E-03
			-55.00		4.4698E-03
			-50.00		4.2871E-03
			-45.00		4.9053E-03
			-40.00		5.0619E-03
			-35.00		5.2285E-03
			-30.00		5.1508E-03
			-25.00		5.1524E-03
			-20.00		5.4196E-03
			-15.00		5.1332E-03
			-10.00		5.3099E-03
			-5.00		5.9746E-03
			0.00		5.9406E-03
			5.00		5.5128E-03
			10.00		5.5527E-03
			15.00		5.2265E-03
			20.00		5.2491E-03
			25.00		5.1900E-03
			30.00		4.9212E-03
			35.00		4.9370E-03
			40.00		5.4827E-03
			45.00		4.8423E-03
			50.00		4.7248E-03
			55.00		5.0009E-03
			60.00		5.0369E-03
			65.00		3.9889E-03
			70.00		4.1878E-03
			75.00		4.0153E-03
			80.00		4.0273E-03
			85.00		3.5820E-03
			90.00		3.4681E-03
			95.00		3.1960E-03
			100.00		3.6180E-03
			105.00		2.5773E-03
			110.00		2.7167E-03
			115.00		2.7476E-03
			120.00		2.8303E-03
			125.00		2.2816E-03
			130.00		2.7867E-03
		END_DATA
	END_SCAN  14
	BEGIN_SCAN  15
		TASK_NAME=MODE_INTERVAL
		PROGRAM=BeamAdjust 1.2
		MEAS_DATE=07-Oct-2010 14:15:24
		LINAC=A4
		MODALITY=X
		INPLANE_AXIS_DIR=TARGET_GUN
		CROSSPLANE_AXIS_DIR=LEFT_RIGHT
		DEPTH_AXIS_DIR=UP_DOWN
		ENERGY=6.00
		SSD=950.00
		WEDGE=None
		FIELD_INPLANE=100.00
		FIELD_CROSSPLANE=100.00
		FIELD_TYPE=RECTANGULAR
		GANTRY=0.00
		GANTRY_UPRIGHT_POSITION=0
		GANTRY_ROTATION=CW
		COLL_ANGLE=90.00
		COLL_OFFSET_INPLANE=0.00
		COLL_OFFSET_CROSSPLANE=0.00
		SCAN_DEVICE=STARCHECK
		ELECTROMETER=2D_ARRAY_INTERFACE
		DETECTOR=STARCHECK
		SCAN_CURVETYPE=INPLANE_PROFILE
		SCAN_DEPTH=0.00
		SCAN_OFFAXIS_CROSSPLANE=0.00
		SCAN_ANGLE=0.00
		SCAN_DIAGONAL=FIRST_DIAGONAL
		MEAS_PRESET=TIME_PRESET
		MEAS_TIME=10.000
		MEAS_UNIT=GY
		PRESSURE=1013.25
		TEMPERATURE=20.00
		NORM_TEMPERATURE=20.00
		CORRECTION_FACTOR=1.0000
		CORRECTIONS=AIR_DENSITY_CORR;
		BEGIN_DATA
			-172.40		3.1885E-03
			-169.40		2.9188E-03
			-166.40		3.8351E-03
			-163.40		3.6763E-03
			-160.40		3.8177E-03
			-157.40		4.2182E-03
			-154.40		4.1916E-03
			-151.40		4.2051E-03
			-148.40		4.9898E-03
			-145.40		5.5366E-03
			-142.40		5.8066E-03
			-139.40		6.2480E-03
			-136.40		6.3580E-03
			-133.40		7.2718E-03
			-130.40		7.9539E-03
			-127.40		8.0128E-03
			-124.40		8.4355E-03
			-121.40		9.4439E-03
			-118.40		10.413E-03
			-115.40		10.947E-03
			-112.40		11.613E-03
			-109.40		13.136E-03
			-106.40		14.308E-03
			-103.40		15.035E-03
			-100.40		16.398E-03
			-97.40		18.950E-03
			-94.40		20.843E-03
			-91.40		23.564E-03
			-88.40		26.787E-03
			-85.40		30.000E-03
			-82.40		35.580E-03
			-79.40		44.251E-03
			-76.40		65.278E-03
			-73.40		142.68E-03
			-70.40		331.07E-03
			-67.40		505.49E-03
			-64.40		587.57E-03
			-61.40		617.71E-03
			-58.40		632.18E-03
			-55.40		641.42E-03
			-52.40		647.14E-03
			-49.40		651.53E-03
			-46.40		653.87E-03
			-43.40		655.60E-03
			-40.40		658.52E-03
			-37.40		662.64E-03
			-34.40		662.26E-03
			-31.40		663.58E-03
			-28.40		662.46E-03
			-25.40		664.94E-03
			-22.40		666.01E-03
			-19.40		666.73E-03
			-16.40		670.03E-03
			-13.40		671.52E-03
			0.00		669.05E-03
			13.40		670.99E-03
			16.40		667.21E-03
			19.40		666.85E-03
			22.40		665.83E-03
			25.40		664.54E-03
			28.40		663.23E-03
			31.40		660.71E-03
			34.40		657.19E-03
			37.40		659.37E-03
			40.40		656.21E-03
			43.40		652.63E-03
			46.40		649.98E-03
			49.40		642.52E-03
			52.40		635.83E-03
			55.40		617.55E-03
			58.40		588.51E-03
			61.40		507.11E-03
			64.40		355.94E-03
			67.40		182.10E-03
			70.40		80.468E-03
			73.40		50.103E-03
			76.40		38.438E-03
			79.40		32.276E-03
			82.40		28.125E-03
			85.40		24.703E-03
			88.40		22.548E-03
			91.40		20.102E-03
			94.40		18.102E-03
			97.40		16.467E-03
			100.40		15.359E-03
			103.40		13.784E-03
			106.40		12.571E-03
			109.40		11.437E-03
			112.40		9.9115E-03
			115.40		9.2550E-03
			118.40		8.4302E-03
			121.40		7.8542E-03
			124.40		7.3749E-03
			127.40		7.2098E-03
			130.40		6.7047E-03
			133.40		5.9204E-03
			136.40		4.8745E-03
			139.40		4.6115E-03
			142.40		4.8789E-03
			145.40		4.3864E-03
			148.40		4.4121E-03
			151.40		3.5537E-03
			154.40		3.6498E-03
			157.40		3.3099E-03
			160.40		2.4296E-03
			163.40		2.3475E-03
			166.40		2.8558E-03
			169.40		2.3228E-03
			172.40		2.6847E-03
		END_DATA
	END_SCAN  15
	BEGIN_SCAN  16
		TASK_NAME=MODE_INTERVAL
		PROGRAM=BeamAdjust 1.2
		MEAS_DATE=07-Oct-2010 14:15:24
		LINAC=A4
		MODALITY=X
		INPLANE_AXIS_DIR=GUN_TARGET
		CROSSPLANE_AXIS_DIR=LEFT_RIGHT
		DEPTH_AXIS_DIR=UP_DOWN
		ENERGY=6.00
		SSD=950.00
		WEDGE=None
		FIELD_INPLANE=100.00
		FIELD_CROSSPLANE=100.00
		FIELD_TYPE=RECTANGULAR
		GANTRY=0.00
		GANTRY_UPRIGHT_POSITION=0
		GANTRY_ROTATION=CW
		COLL_ANGLE=90.00
		COLL_OFFSET_INPLANE=0.00
		COLL_OFFSET_CROSSPLANE=0.00
		SCAN_DEVICE=STARCHECK
		ELECTROMETER=2D_ARRAY_INTERFACE
		DETECTOR=STARCHECK
		SCAN_CURVETYPE=INPLANE_PROFILE
		SCAN_DEPTH=0.00
		SCAN_OFFAXIS_CROSSPLANE=0.00
		SCAN_ANGLE=0.00
		SCAN_DIAGONAL=SECOND_DIAGONAL
		MEAS_PRESET=TIME_PRESET
		MEAS_TIME=10.000
		MEAS_UNIT=GY
		PRESSURE=1013.25
		TEMPERATURE=20.00
		NORM_TEMPERATURE=20.00
		CORRECTION_FACTOR=1.0000
		CORRECTIONS=AIR_DENSITY_CORR;
		BEGIN_DATA
			-172.40		2.7700E-03
			-169.40		3.0476E-03
			-166.40		2.9666E-03
			-163.40		3.0135E-03
			-160.40		3.3414E-03
			-157.40		3.6776E-03
			-154.40		3.9826E-03
			-151.40		4.4295E-03
			-148.40		4.6690E-03
			-145.40		4.8687E-03
			-142.40		5.4424E-03
			-139.40		5.6448E-03
			-136.40		5.9393E-03
			-133.40		7.3704E-03
			-130.40		7.3333E-03
			-127.40		7.9941E-03
			-124.40		8.7355E-03
			-121.40		9.3645E-03
			-118.40		9.9970E-03
			-115.40		10.448E-03
			-112.40		11.085E-03
			-109.40		12.665E-03
			-106.40		13.778E-03
			-103.40		15.114E-03
			-100.40		16.741E-03
			-97.40		18.258E-03
			-94.40		19.891E-03
			-91.40		23.055E-03
			-88.40		24.617E-03
			-85.40		28.104E-03
			-82.40		33.076E-03
			-79.40		40.822E-03
			-76.40		56.335E-03
			-73.40		106.31E-03
			-70.40		263.75E-03
			-67.40		454.10E-03
			-64.40		570.09E-03
			-61.40		614.62E-03
			-58.40		635.24E-03
			-55.40		643.51E-03
			-52.40		653.38E-03
			-49.40		657.74E-03
			-46.40		659.97E-03
			-43.40		662.55E-03
			-40.40		664.14E-03
			-37.40		667.20E-03
			-34.40		666.33E-03
			-31.40		666.85E-03
			-28.40		668.95E-03
			-25.40		667.60E-03
			-22.40		665.85E-03
			-19.40		669.57E-03
			-16.40		671.26E-03
			-13.40		673.39E-03
			0.00		669.05E-03
			13.40		670.28E-03
			16.40		667.71E-03
			19.40		664.30E-03
			22.40		661.75E-03
			25.40		661.62E-03
			28.40		660.32E-03
			31.40		658.39E-03
			34.40		655.11E-03
			37.40		654.18E-03
			40.40		652.28E-03
			43.40		649.83E-03
			46.40		647.30E-03
			49.40		641.92E-03
			52.40		631.45E-03
			55.40		617.78E-03
			58.40		594.01E-03
			61.40		524.24E-03
			64.40		383.00E-03
			67.40		201.93E-03
			70.40		87.344E-03
			73.40		51.546E-03
			76.40		38.822E-03
			79.40		32.340E-03
			82.40		28.821E-03
			85.40		25.591E-03
			88.40		22.896E-03
			91.40		20.496E-03
			94.40		18.411E-03
			97.40		17.198E-03
			100.40		14.667E-03
			103.40		13.085E-03
			106.40		12.530E-03
			109.40		11.110E-03
			112.40		10.418E-03
			115.40		9.6354E-03
			118.40		8.6936E-03
			121.40		7.8809E-03
			124.40		6.9234E-03
			127.40		6.6519E-03
			130.40		6.8859E-03
			133.40		6.1223E-03
			136.40		5.4704E-03
			139.40		6.0673E-03
			142.40		5.2650E-03
			145.40		5.0982E-03
			148.40		4.5359E-03
			151.40		4.0626E-03
			154.40		3.9328E-03
			157.40		3.8293E-03
			160.40		3.6264E-03
			163.40		3.7638E-03
			166.40		3.5626E-03
			169.40		2.7545E-03
			172.40		2.6301E-03
		END_DATA
	END_SCAN  16
END_SCAN_DATA
