BEGIN_SCAN_DATA
	FORMAT=CC-Export V1.9                  
	FILE_CREATION_DATE=07-Oct-2010 14:14:59
	LAST_MODIFIED=07-Oct-2010 14:14:59
	BEGIN_SCAN  1
		TASK_NAME=MODE_INTERVAL
		PROGRAM=BeamAdjust 1.2
		MEAS_DATE=07-Oct-2010 14:14:59
		LINAC=A4
		MODALITY=X
		INPLANE_AXIS_DIR=TARGET_GUN
		CROSSPLANE_AXIS_DIR=LEFT_RIGHT
		DEPTH_AXIS_DIR=UP_DOWN
		ENERGY=6.00
		SSD=950.00
		WEDGE=None
		FIELD_INPLANE=100.00
		FIELD_CROSSPLANE=100.00
		FIELD_TYPE=RECTANGULAR
		GANTRY=0.00
		GANTRY_UPRIGHT_POSITION=0
		GANTRY_ROTATION=CW
		COLL_ANGLE=90.00
		COLL_OFFSET_INPLANE=0.00
		COLL_OFFSET_CROSSPLANE=0.00
		SCAN_DEVICE=STARCHECK
		ELECTROMETER=2D_ARRAY_INTERFACE
		DETECTOR=STARCHECK
		SCAN_CURVETYPE=CROSSPLANE_PROFILE
		SCAN_DEPTH=0.00
		SCAN_OFFAXIS_INPLANE=-130.00
		SCAN_ANGLE=0.00
		SCAN_DIAGONAL=NOT_DIAGONAL
		MEAS_PRESET=TIME_PRESET
		MEAS_TIME=10.000
		MEAS_UNIT=GY
		PRESSURE=1013.25
		TEMPERATURE=20.00
		NORM_TEMPERATURE=20.00
		CORRECTION_FACTOR=1.0000
		CORRECTIONS=AIR_DENSITY_CORR;
		BEGIN_DATA
			-130.00		2.5252E-03
			-80.00		4.4495E-03
			-40.00		7.6476E-03
			40.00		7.1881E-03
			80.00		4.1977E-03
			130.00		2.2696E-03
		END_DATA
	END_SCAN  1
	BEGIN_SCAN  2
		TASK_NAME=MODE_INTERVAL
		PROGRAM=BeamAdjust 1.2
		MEAS_DATE=07-Oct-2010 14:14:59
		LINAC=A4
		MODALITY=X
		INPLANE_AXIS_DIR=TARGET_GUN
		CROSSPLANE_AXIS_DIR=LEFT_RIGHT
		DEPTH_AXIS_DIR=UP_DOWN
		ENERGY=6.00
		SSD=950.00
		WEDGE=None
		FIELD_INPLANE=100.00
		FIELD_CROSSPLANE=100.00
		FIELD_TYPE=RECTANGULAR
		GANTRY=0.00
		GANTRY_UPRIGHT_POSITION=0
		GANTRY_ROTATION=CW
		COLL_ANGLE=90.00
		COLL_OFFSET_INPLANE=0.00
		COLL_OFFSET_CROSSPLANE=0.00
		SCAN_DEVICE=STARCHECK
		ELECTROMETER=2D_ARRAY_INTERFACE
		DETECTOR=STARCHECK
		SCAN_CURVETYPE=CROSSPLANE_PROFILE
		SCAN_DEPTH=0.00
		SCAN_OFFAXIS_INPLANE=-100.00
		SCAN_ANGLE=0.00
		SCAN_DIAGONAL=NOT_DIAGONAL
		MEAS_PRESET=TIME_PRESET
		MEAS_TIME=10.000
		MEAS_UNIT=GY
		PRESSURE=1013.25
		TEMPERATURE=20.00
		NORM_TEMPERATURE=20.00
		CORRECTION_FACTOR=1.0000
		CORRECTIONS=AIR_DENSITY_CORR;
		BEGIN_DATA
			-60.00		10.903E-03
			-30.00		15.410E-03
			30.00		15.983E-03
			60.00		10.361E-03
		END_DATA
	END_SCAN  2
	BEGIN_SCAN  3
		TASK_NAME=MODE_INTERVAL
		PROGRAM=BeamAdjust 1.2
		MEAS_DATE=07-Oct-2010 14:14:59
		LINAC=A4
		MODALITY=X
		INPLANE_AXIS_DIR=TARGET_GUN
		CROSSPLANE_AXIS_DIR=LEFT_RIGHT
		DEPTH_AXIS_DIR=UP_DOWN
		ENERGY=6.00
		SSD=950.00
		WEDGE=None
		FIELD_INPLANE=100.00
		FIELD_CROSSPLANE=100.00
		FIELD_TYPE=RECTANGULAR
		GANTRY=0.00
		GANTRY_UPRIGHT_POSITION=0
		GANTRY_ROTATION=CW
		COLL_ANGLE=90.00
		COLL_OFFSET_INPLANE=0.00
		COLL_OFFSET_CROSSPLANE=0.00
		SCAN_DEVICE=STARCHECK
		ELECTROMETER=2D_ARRAY_INTERFACE
		DETECTOR=STARCHECK
		SCAN_CURVETYPE=CROSSPLANE_PROFILE
		SCAN_DEPTH=0.00
		SCAN_OFFAXIS_INPLANE=-50.00
		SCAN_ANGLE=0.00
		SCAN_DIAGONAL=NOT_DIAGONAL
		MEAS_PRESET=TIME_PRESET
		MEAS_TIME=10.000
		MEAS_UNIT=GY
		PRESSURE=1013.25
		TEMPERATURE=20.00
		NORM_TEMPERATURE=20.00
		CORRECTION_FACTOR=1.0000
		CORRECTIONS=AIR_DENSITY_CORR;
		BEGIN_DATA
			-30.00		576.00E-03
			-15.00		553.21E-03
			15.00		574.23E-03
			30.00		576.05E-03
		END_DATA
	END_SCAN  3
	BEGIN_SCAN  4
		TASK_NAME=MODE_INTERVAL
		PROGRAM=BeamAdjust 1.2
		MEAS_DATE=07-Oct-2010 14:14:59
		LINAC=A4
		MODALITY=X
		INPLANE_AXIS_DIR=TARGET_GUN
		CROSSPLANE_AXIS_DIR=LEFT_RIGHT
		DEPTH_AXIS_DIR=UP_DOWN
		ENERGY=6.00
		SSD=950.00
		WEDGE=None
		FIELD_INPLANE=100.00
		FIELD_CROSSPLANE=100.00
		FIELD_TYPE=RECTANGULAR
		GANTRY=0.00
		GANTRY_UPRIGHT_POSITION=0
		GANTRY_ROTATION=CW
		COLL_ANGLE=90.00
		COLL_OFFSET_INPLANE=0.00
		COLL_OFFSET_CROSSPLANE=0.00
		SCAN_DEVICE=STARCHECK
		ELECTROMETER=2D_ARRAY_INTERFACE
		DETECTOR=STARCHECK
		SCAN_CURVETYPE=CROSSPLANE_PROFILE
		SCAN_DEPTH=0.00
		SCAN_OFFAXIS_INPLANE=0.00
		SCAN_ANGLE=0.00
		SCAN_DIAGONAL=NOT_DIAGONAL
		MEAS_PRESET=TIME_PRESET
		MEAS_TIME=10.000
		MEAS_UNIT=GY
		PRESSURE=1013.25
		TEMPERATURE=20.00
		NORM_TEMPERATURE=20.00
		CORRECTION_FACTOR=1.0000
		CORRECTIONS=AIR_DENSITY_CORR;
		BEGIN_DATA
			-126.00		6.3230E-03
			-123.00		7.1994E-03
			-120.00		7.6504E-03
			-117.00		8.6045E-03
			-114.00		8.8530E-03
			-111.00		9.5875E-03
			-108.00		10.591E-03
			-105.00		11.204E-03
			-102.00		12.152E-03
			-99.00		13.111E-03
			-96.00		14.145E-03
			-93.00		15.898E-03
			-90.00		16.336E-03
			-87.00		18.007E-03
			-84.00		20.082E-03
			-81.00		21.668E-03
			-78.00		23.783E-03
			-75.00		26.742E-03
			-72.00		29.608E-03
			-69.00		34.020E-03
			-66.00		39.474E-03
			-63.00		45.135E-03
			-60.00		55.092E-03
			-57.00		72.948E-03
			-54.00		114.69E-03
			-51.00		293.01E-03
			-48.00		556.05E-03
			-45.00		617.79E-03
			-42.00		636.95E-03
			-39.00		649.37E-03
			-36.00		655.47E-03
			-33.00		655.81E-03
			-30.00		657.66E-03
			-27.00		660.24E-03
			-24.00		662.69E-03
			-21.00		662.30E-03
			-18.00		667.95E-03
			-15.00		668.31E-03
			-12.00		667.93E-03
			-9.00		671.32E-03
			-6.00		670.00E-03
			0.00		669.42E-03
			6.00		672.53E-03
			9.00		671.39E-03
			12.00		668.62E-03
			15.00		667.65E-03
			18.00		667.11E-03
			21.00		665.24E-03
			24.00		661.83E-03
			27.00		665.85E-03
			30.00		664.04E-03
			33.00		661.74E-03
			36.00		658.13E-03
			39.00		651.88E-03
			42.00		640.90E-03
			45.00		615.33E-03
			48.00		525.58E-03
			51.00		231.88E-03
			54.00		101.92E-03
			57.00		68.331E-03
			60.00		53.010E-03
			63.00		44.252E-03
			66.00		37.775E-03
			69.00		33.068E-03
			72.00		29.537E-03
			75.00		26.416E-03
			78.00		23.618E-03
			81.00		21.452E-03
			84.00		19.996E-03
			87.00		17.459E-03
			90.00		16.579E-03
			93.00		14.882E-03
			96.00		13.358E-03
			99.00		12.571E-03
			102.00		11.677E-03
			105.00		10.860E-03
			108.00		10.436E-03
			111.00		9.2019E-03
			114.00		8.8118E-03
			117.00		8.2165E-03
			120.00		7.3566E-03
			123.00		7.2599E-03
			126.00		7.6199E-03
		END_DATA
	END_SCAN  4
	BEGIN_SCAN  5
		TASK_NAME=MODE_INTERVAL
		PROGRAM=BeamAdjust 1.2
		MEAS_DATE=07-Oct-2010 14:14:59
		LINAC=A4
		MODALITY=X
		INPLANE_AXIS_DIR=TARGET_GUN
		CROSSPLANE_AXIS_DIR=LEFT_RIGHT
		DEPTH_AXIS_DIR=UP_DOWN
		ENERGY=6.00
		SSD=950.00
		WEDGE=None
		FIELD_INPLANE=100.00
		FIELD_CROSSPLANE=100.00
		FIELD_TYPE=RECTANGULAR
		GANTRY=0.00
		GANTRY_UPRIGHT_POSITION=0
		GANTRY_ROTATION=CW
		COLL_ANGLE=90.00
		COLL_OFFSET_INPLANE=0.00
		COLL_OFFSET_CROSSPLANE=0.00
		SCAN_DEVICE=STARCHECK
		ELECTROMETER=2D_ARRAY_INTERFACE
		DETECTOR=STARCHECK
		SCAN_CURVETYPE=CROSSPLANE_PROFILE
		SCAN_DEPTH=0.00
		SCAN_OFFAXIS_INPLANE=50.00
		SCAN_ANGLE=0.00
		SCAN_DIAGONAL=NOT_DIAGONAL
		MEAS_PRESET=TIME_PRESET
		MEAS_TIME=10.000
		MEAS_UNIT=GY
		PRESSURE=1013.25
		TEMPERATURE=20.00
		NORM_TEMPERATURE=20.00
		CORRECTION_FACTOR=1.0000
		CORRECTIONS=AIR_DENSITY_CORR;
		BEGIN_DATA
			-30.00		124.32E-03
			-15.00		128.21E-03
			15.00		116.82E-03
			30.00		120.26E-03
		END_DATA
	END_SCAN  5
	BEGIN_SCAN  6
		TASK_NAME=MODE_INTERVAL
		PROGRAM=BeamAdjust 1.2
		MEAS_DATE=07-Oct-2010 14:14:59
		LINAC=A4
		MODALITY=X
		INPLANE_AXIS_DIR=TARGET_GUN
		CROSSPLANE_AXIS_DIR=LEFT_RIGHT
		DEPTH_AXIS_DIR=UP_DOWN
		ENERGY=6.00
		SSD=950.00
		WEDGE=None
		FIELD_INPLANE=100.00
		FIELD_CROSSPLANE=100.00
		FIELD_TYPE=RECTANGULAR
		GANTRY=0.00
		GANTRY_UPRIGHT_POSITION=0
		GANTRY_ROTATION=CW
		COLL_ANGLE=90.00
		COLL_OFFSET_INPLANE=0.00
		COLL_OFFSET_CROSSPLANE=0.00
		SCAN_DEVICE=STARCHECK
		ELECTROMETER=2D_ARRAY_INTERFACE
		DETECTOR=STARCHECK
		SCAN_CURVETYPE=CROSSPLANE_PROFILE
		SCAN_DEPTH=0.00
		SCAN_OFFAXIS_INPLANE=100.00
		SCAN_ANGLE=0.00
		SCAN_DIAGONAL=NOT_DIAGONAL
		MEAS_PRESET=TIME_PRESET
		MEAS_TIME=10.000
		MEAS_UNIT=GY
		PRESSURE=1013.25
		TEMPERATURE=20.00
		NORM_TEMPERATURE=20.00
		CORRECTION_FACTOR=1.0000
		CORRECTIONS=AIR_DENSITY_CORR;
		BEGIN_DATA
			-60.00		10.072E-03
			-30.00		13.909E-03
			30.00		14.100E-03
			60.00		8.3267E-03
		END_DATA
	END_SCAN  6
	BEGIN_SCAN  7
		TASK_NAME=MODE_INTERVAL
		PROGRAM=BeamAdjust 1.2
		MEAS_DATE=07-Oct-2010 14:14:59
		LINAC=A4
		MODALITY=X
		INPLANE_AXIS_DIR=TARGET_GUN
		CROSSPLANE_AXIS_DIR=LEFT_RIGHT
		DEPTH_AXIS_DIR=UP_DOWN
		ENERGY=6.00
		SSD=950.00
		WEDGE=None
		FIELD_INPLANE=100.00
		FIELD_CROSSPLANE=100.00
		FIELD_TYPE=RECTANGULAR
		GANTRY=0.00
		GANTRY_UPRIGHT_POSITION=0
		GANTRY_ROTATION=CW
		COLL_ANGLE=90.00
		COLL_OFFSET_INPLANE=0.00
		COLL_OFFSET_CROSSPLANE=0.00
		SCAN_DEVICE=STARCHECK
		ELECTROMETER=2D_ARRAY_INTERFACE
		DETECTOR=STARCHECK
		SCAN_CURVETYPE=CROSSPLANE_PROFILE
		SCAN_DEPTH=0.00
		SCAN_OFFAXIS_INPLANE=130.00
		SCAN_ANGLE=0.00
		SCAN_DIAGONAL=NOT_DIAGONAL
		MEAS_PRESET=TIME_PRESET
		MEAS_TIME=10.000
		MEAS_UNIT=GY
		PRESSURE=1013.25
		TEMPERATURE=20.00
		NORM_TEMPERATURE=20.00
		CORRECTION_FACTOR=1.0000
		CORRECTIONS=AIR_DENSITY_CORR;
		BEGIN_DATA
			-130.00		2.0033E-03
			-80.00		4.0199E-03
			-40.00		7.2822E-03
			40.00		6.8928E-03
			80.00		4.1518E-03
			130.00		2.1643E-03
		END_DATA
	END_SCAN  7
	BEGIN_SCAN  8
		TASK_NAME=MODE_INTERVAL
		PROGRAM=BeamAdjust 1.2
		MEAS_DATE=07-Oct-2010 14:14:59
		LINAC=A4
		MODALITY=X
		INPLANE_AXIS_DIR=TARGET_GUN
		CROSSPLANE_AXIS_DIR=LEFT_RIGHT
		DEPTH_AXIS_DIR=UP_DOWN
		ENERGY=6.00
		SSD=950.00
		WEDGE=None
		FIELD_INPLANE=100.00
		FIELD_CROSSPLANE=100.00
		FIELD_TYPE=RECTANGULAR
		GANTRY=0.00
		GANTRY_UPRIGHT_POSITION=0
		GANTRY_ROTATION=CW
		COLL_ANGLE=90.00
		COLL_OFFSET_INPLANE=0.00
		COLL_OFFSET_CROSSPLANE=0.00
		SCAN_DEVICE=STARCHECK
		ELECTROMETER=2D_ARRAY_INTERFACE
		DETECTOR=STARCHECK
		SCAN_CURVETYPE=INPLANE_PROFILE
		SCAN_DEPTH=0.00
		SCAN_OFFAXIS_CROSSPLANE=-130.00
		SCAN_ANGLE=0.00
		SCAN_DIAGONAL=NOT_DIAGONAL
		MEAS_PRESET=TIME_PRESET
		MEAS_TIME=10.000
		MEAS_UNIT=GY
		PRESSURE=1013.25
		TEMPERATURE=20.00
		NORM_TEMPERATURE=20.00
		CORRECTION_FACTOR=1.0000
		CORRECTIONS=AIR_DENSITY_CORR;
		BEGIN_DATA
			-130.00		2.5252E-03
			-125.00		2.6135E-03
			-120.00		2.9555E-03
			-115.00		3.4071E-03
			-110.00		3.2971E-03
			-105.00		3.6753E-03
			-100.00		4.1298E-03
			-95.00		4.7080E-03
			-90.00		4.7488E-03
			-85.00		4.4859E-03
			-80.00		4.5219E-03
			-75.00		5.0721E-03
			-70.00		5.1106E-03
			-65.00		5.4088E-03
			-60.00		5.3590E-03
			-55.00		6.2611E-03
			-50.00		4.5205E-03
			-45.00		4.8764E-03
			-40.00		4.8739E-03
			-35.00		5.5712E-03
			-30.00		5.7078E-03
			-25.00		5.0497E-03
			-20.00		5.1240E-03
			-15.00		4.7974E-03
			-10.00		5.2965E-03
			-5.00		6.2487E-03
			0.00		5.8686E-03
			5.00		6.4160E-03
			10.00		5.7663E-03
			15.00		5.6517E-03
			20.00		5.9025E-03
			25.00		5.1714E-03
			30.00		5.4184E-03
			35.00		5.3660E-03
			40.00		5.4588E-03
			45.00		4.7073E-03
			50.00		4.9224E-03
			55.00		4.4542E-03
			60.00		4.6518E-03
			65.00		4.1126E-03
			70.00		4.0964E-03
			75.00		3.9183E-03
			80.00		3.5953E-03
			85.00		3.4540E-03
			90.00		2.9707E-03
			95.00		2.9495E-03
			100.00		2.6889E-03
			105.00		2.1885E-03
			110.00		2.7066E-03
			115.00		1.9132E-03
			120.00		2.2048E-03
			125.00		2.4490E-03
			130.00		2.0033E-03
		END_DATA
	END_SCAN  8
	BEGIN_SCAN  9
		TASK_NAME=MODE_INTERVAL
		PROGRAM=BeamAdjust 1.2
		MEAS_DATE=07-Oct-2010 14:14:59
		LINAC=A4
		MODALITY=X
		INPLANE_AXIS_DIR=TARGET_GUN
		CROSSPLANE_AXIS_DIR=LEFT_RIGHT
		DEPTH_AXIS_DIR=UP_DOWN
		ENERGY=6.00
		SSD=950.00
		WEDGE=None
		FIELD_INPLANE=100.00
		FIELD_CROSSPLANE=100.00
		FIELD_TYPE=RECTANGULAR
		GANTRY=0.00
		GANTRY_UPRIGHT_POSITION=0
		GANTRY_ROTATION=CW
		COLL_ANGLE=90.00
		COLL_OFFSET_INPLANE=0.00
		COLL_OFFSET_CROSSPLANE=0.00
		SCAN_DEVICE=STARCHECK
		ELECTROMETER=2D_ARRAY_INTERFACE
		DETECTOR=STARCHECK
		SCAN_CURVETYPE=INPLANE_PROFILE
		SCAN_DEPTH=0.00
		SCAN_OFFAXIS_CROSSPLANE=-100.00
		SCAN_ANGLE=0.00
		SCAN_DIAGONAL=NOT_DIAGONAL
		MEAS_PRESET=TIME_PRESET
		MEAS_TIME=10.000
		MEAS_UNIT=GY
		PRESSURE=1013.25
		TEMPERATURE=20.00
		NORM_TEMPERATURE=20.00
		CORRECTION_FACTOR=1.0000
		CORRECTIONS=AIR_DENSITY_CORR;
		BEGIN_DATA
			-60.00		8.9236E-03
			-30.00		10.880E-03
			30.00		10.359E-03
			60.00		7.9393E-03
		END_DATA
	END_SCAN  9
	BEGIN_SCAN  10
		TASK_NAME=MODE_INTERVAL
		PROGRAM=BeamAdjust 1.2
		MEAS_DATE=07-Oct-2010 14:14:59
		LINAC=A4
		MODALITY=X
		INPLANE_AXIS_DIR=TARGET_GUN
		CROSSPLANE_AXIS_DIR=LEFT_RIGHT
		DEPTH_AXIS_DIR=UP_DOWN
		ENERGY=6.00
		SSD=950.00
		WEDGE=None
		FIELD_INPLANE=100.00
		FIELD_CROSSPLANE=100.00
		FIELD_TYPE=RECTANGULAR
		GANTRY=0.00
		GANTRY_UPRIGHT_POSITION=0
		GANTRY_ROTATION=CW
		COLL_ANGLE=90.00
		COLL_OFFSET_INPLANE=0.00
		COLL_OFFSET_CROSSPLANE=0.00
		SCAN_DEVICE=STARCHECK
		ELECTROMETER=2D_ARRAY_INTERFACE
		DETECTOR=STARCHECK
		SCAN_CURVETYPE=INPLANE_PROFILE
		SCAN_DEPTH=0.00
		SCAN_OFFAXIS_CROSSPLANE=-50.00
		SCAN_ANGLE=0.00
		SCAN_DIAGONAL=NOT_DIAGONAL
		MEAS_PRESET=TIME_PRESET
		MEAS_TIME=10.000
		MEAS_UNIT=GY
		PRESSURE=1013.25
		TEMPERATURE=20.00
		NORM_TEMPERATURE=20.00
		CORRECTION_FACTOR=1.0000
		CORRECTIONS=AIR_DENSITY_CORR;
		BEGIN_DATA
			-30.00		399.01E-03
			-15.00		395.11E-03
			15.00		384.37E-03
			30.00		372.36E-03
		END_DATA
	END_SCAN  10
	BEGIN_SCAN  11
		TASK_NAME=MODE_INTERVAL
		PROGRAM=BeamAdjust 1.2
		MEAS_DATE=07-Oct-2010 14:14:59
		LINAC=A4
		MODALITY=X
		INPLANE_AXIS_DIR=TARGET_GUN
		CROSSPLANE_AXIS_DIR=LEFT_RIGHT
		DEPTH_AXIS_DIR=UP_DOWN
		ENERGY=6.00
		SSD=950.00
		WEDGE=None
		FIELD_INPLANE=100.00
		FIELD_CROSSPLANE=100.00
		FIELD_TYPE=RECTANGULAR
		GANTRY=0.00
		GANTRY_UPRIGHT_POSITION=0
		GANTRY_ROTATION=CW
		COLL_ANGLE=90.00
		COLL_OFFSET_INPLANE=0.00
		COLL_OFFSET_CROSSPLANE=0.00
		SCAN_DEVICE=STARCHECK
		ELECTROMETER=2D_ARRAY_INTERFACE
		DETECTOR=STARCHECK
		SCAN_CURVETYPE=INPLANE_PROFILE
		SCAN_DEPTH=0.00
		SCAN_OFFAXIS_CROSSPLANE=0.00
		SCAN_ANGLE=0.00
		SCAN_DIAGONAL=NOT_DIAGONAL
		MEAS_PRESET=TIME_PRESET
		MEAS_TIME=10.000
		MEAS_UNIT=GY
		PRESSURE=1013.25
		TEMPERATURE=20.00
		NORM_TEMPERATURE=20.00
		CORRECTION_FACTOR=1.0000
		CORRECTIONS=AIR_DENSITY_CORR;
		BEGIN_DATA
			-126.00		9.5174E-03
			-123.00		9.4706E-03
			-120.00		10.982E-03
			-117.00		11.911E-03
			-114.00		12.698E-03
			-111.00		13.500E-03
			-108.00		14.648E-03
			-105.00		15.610E-03
			-102.00		17.325E-03
			-99.00		17.810E-03
			-96.00		19.480E-03
			-93.00		21.739E-03
			-90.00		23.752E-03
			-87.00		25.317E-03
			-84.00		27.509E-03
			-81.00		30.198E-03
			-78.00		33.191E-03
			-75.00		36.141E-03
			-72.00		40.370E-03
			-69.00		44.817E-03
			-66.00		51.885E-03
			-63.00		61.595E-03
			-60.00		79.237E-03
			-57.00		125.64E-03
			-54.00		278.62E-03
			-51.00		538.89E-03
			-48.00		622.25E-03
			-45.00		643.48E-03
			-42.00		652.91E-03
			-39.00		658.35E-03
			-36.00		662.19E-03
			-33.00		664.21E-03
			-30.00		667.23E-03
			-27.00		667.90E-03
			-24.00		667.12E-03
			-21.00		667.00E-03
			-18.00		673.91E-03
			-15.00		671.10E-03
			-12.00		670.87E-03
			-9.00		670.56E-03
			-6.00		668.30E-03
			0.00		669.42E-03
			6.00		673.81E-03
			9.00		671.90E-03
			12.00		669.68E-03
			15.00		667.75E-03
			18.00		664.35E-03
			21.00		664.13E-03
			24.00		660.22E-03
			27.00		661.28E-03
			30.00		655.92E-03
			33.00		652.12E-03
			36.00		647.50E-03
			39.00		630.81E-03
			42.00		600.64E-03
			45.00		463.05E-03
			48.00		203.83E-03
			51.00		104.22E-03
			54.00		70.845E-03
			57.00		57.451E-03
			60.00		49.283E-03
			63.00		43.410E-03
			66.00		39.223E-03
			69.00		34.950E-03
			72.00		31.804E-03
			75.00		28.818E-03
			78.00		25.715E-03
			81.00		23.763E-03
			84.00		22.639E-03
			87.00		20.342E-03
			90.00		18.979E-03
			93.00		17.585E-03
			96.00		16.459E-03
			99.00		15.041E-03
			102.00		13.627E-03
			105.00		12.798E-03
			108.00		12.482E-03
			111.00		11.344E-03
			114.00		10.650E-03
			117.00		9.7282E-03
			120.00		9.2777E-03
			123.00		8.5535E-03
			126.00		8.3154E-03
		END_DATA
	END_SCAN  11
	BEGIN_SCAN  12
		TASK_NAME=MODE_INTERVAL
		PROGRAM=BeamAdjust 1.2
		MEAS_DATE=07-Oct-2010 14:14:59
		LINAC=A4
		MODALITY=X
		INPLANE_AXIS_DIR=TARGET_GUN
		CROSSPLANE_AXIS_DIR=LEFT_RIGHT
		DEPTH_AXIS_DIR=UP_DOWN
		ENERGY=6.00
		SSD=950.00
		WEDGE=None
		FIELD_INPLANE=100.00
		FIELD_CROSSPLANE=100.00
		FIELD_TYPE=RECTANGULAR
		GANTRY=0.00
		GANTRY_UPRIGHT_POSITION=0
		GANTRY_ROTATION=CW
		COLL_ANGLE=90.00
		COLL_OFFSET_INPLANE=0.00
		COLL_OFFSET_CROSSPLANE=0.00
		SCAN_DEVICE=STARCHECK
		ELECTROMETER=2D_ARRAY_INTERFACE
		DETECTOR=STARCHECK
		SCAN_CURVETYPE=INPLANE_PROFILE
		SCAN_DEPTH=0.00
		SCAN_OFFAXIS_CROSSPLANE=50.00
		SCAN_ANGLE=0.00
		SCAN_DIAGONAL=NOT_DIAGONAL
		MEAS_PRESET=TIME_PRESET
		MEAS_TIME=10.000
		MEAS_UNIT=GY
		PRESSURE=1013.25
		TEMPERATURE=20.00
		NORM_TEMPERATURE=20.00
		CORRECTION_FACTOR=1.0000
		CORRECTIONS=AIR_DENSITY_CORR;
		BEGIN_DATA
			-30.00		327.27E-03
			-15.00		335.59E-03
			15.00		342.33E-03
			30.00		342.74E-03
		END_DATA
	END_SCAN  12
	BEGIN_SCAN  13
		TASK_NAME=MODE_INTERVAL
		PROGRAM=BeamAdjust 1.2
		MEAS_DATE=07-Oct-2010 14:14:59
		LINAC=A4
		MODALITY=X
		INPLANE_AXIS_DIR=TARGET_GUN
		CROSSPLANE_AXIS_DIR=LEFT_RIGHT
		DEPTH_AXIS_DIR=UP_DOWN
		ENERGY=6.00
		SSD=950.00
		WEDGE=None
		FIELD_INPLANE=100.00
		FIELD_CROSSPLANE=100.00
		FIELD_TYPE=RECTANGULAR
		GANTRY=0.00
		GANTRY_UPRIGHT_POSITION=0
		GANTRY_ROTATION=CW
		COLL_ANGLE=90.00
		COLL_OFFSET_INPLANE=0.00
		COLL_OFFSET_CROSSPLANE=0.00
		SCAN_DEVICE=STARCHECK
		ELECTROMETER=2D_ARRAY_INTERFACE
		DETECTOR=STARCHECK
		SCAN_CURVETYPE=INPLANE_PROFILE
		SCAN_DEPTH=0.00
		SCAN_OFFAXIS_CROSSPLANE=100.00
		SCAN_ANGLE=0.00
		SCAN_DIAGONAL=NOT_DIAGONAL
		MEAS_PRESET=TIME_PRESET
		MEAS_TIME=10.000
		MEAS_UNIT=GY
		PRESSURE=1013.25
		TEMPERATURE=20.00
		NORM_TEMPERATURE=20.00
		CORRECTION_FACTOR=1.0000
		CORRECTIONS=AIR_DENSITY_CORR;
		BEGIN_DATA
			-60.00		8.5792E-03
			-30.00		10.630E-03
			30.00		10.517E-03
			60.00		7.3159E-03
		END_DATA
	END_SCAN  13
	BEGIN_SCAN  14
		TASK_NAME=MODE_INTERVAL
		PROGRAM=BeamAdjust 1.2
		MEAS_DATE=07-Oct-2010 14:14:59
		LINAC=A4
		MODALITY=X
		INPLANE_AXIS_DIR=TARGET_GUN
		CROSSPLANE_AXIS_DIR=LEFT_RIGHT
		DEPTH_AXIS_DIR=UP_DOWN
		ENERGY=6.00
		SSD=950.00
		WEDGE=None
		FIELD_INPLANE=100.00
		FIELD_CROSSPLANE=100.00
		FIELD_TYPE=RECTANGULAR
		GANTRY=0.00
		GANTRY_UPRIGHT_POSITION=0
		GANTRY_ROTATION=CW
		COLL_ANGLE=90.00
		COLL_OFFSET_INPLANE=0.00
		COLL_OFFSET_CROSSPLANE=0.00
		SCAN_DEVICE=STARCHECK
		ELECTROMETER=2D_ARRAY_INTERFACE
		DETECTOR=STARCHECK
		SCAN_CURVETYPE=INPLANE_PROFILE
		SCAN_DEPTH=0.00
		SCAN_OFFAXIS_CROSSPLANE=130.00
		SCAN_ANGLE=0.00
		SCAN_DIAGONAL=NOT_DIAGONAL
		MEAS_PRESET=TIME_PRESET
		MEAS_TIME=10.000
		MEAS_UNIT=GY
		PRESSURE=1013.25
		TEMPERATURE=20.00
		NORM_TEMPERATURE=20.00
		CORRECTION_FACTOR=1.0000
		CORRECTIONS=AIR_DENSITY_CORR;
		BEGIN_DATA
			-130.00		2.2696E-03
			-125.00		2.8401E-03
			-120.00		2.6943E-03
			-115.00		3.0368E-03
			-110.00		2.9339E-03
			-105.00		2.9620E-03
			-100.00		3.2438E-03
			-95.00		3.0983E-03
			-90.00		2.7428E-03
			-85.00		4.4240E-03
			-80.00		3.5014E-03
			-75.00		3.7238E-03
			-70.00		3.9838E-03
			-65.00		3.8875E-03
			-60.00		4.4753E-03
			-55.00		4.3768E-03
			-50.00		4.1394E-03
			-45.00		4.7046E-03
			-40.00		4.9378E-03
			-35.00		5.0214E-03
			-30.00		5.4478E-03
			-25.00		5.1421E-03
			-20.00		5.5127E-03
			-15.00		5.8152E-03
			-10.00		5.1594E-03
			-5.00		6.2673E-03
			0.00		6.1948E-03
			5.00		5.7606E-03
			10.00		5.6515E-03
			15.00		5.4004E-03
			20.00		5.3956E-03
			25.00		5.2537E-03
			30.00		4.7831E-03
			35.00		5.0688E-03
			40.00		5.3650E-03
			45.00		4.7360E-03
			50.00		4.6496E-03
			55.00		5.3840E-03
			60.00		4.4630E-03
			65.00		3.8581E-03
			70.00		4.0788E-03
			75.00		4.2710E-03
			80.00		4.0406E-03
			85.00		3.9637E-03
			90.00		3.5344E-03
			95.00		3.3801E-03
			100.00		3.5170E-03
			105.00		2.5654E-03
			110.00		2.6132E-03
			115.00		2.6135E-03
			120.00		2.5413E-03
			125.00		2.5456E-03
			130.00		2.1643E-03
		END_DATA
	END_SCAN  14
	BEGIN_SCAN  15
		TASK_NAME=MODE_INTERVAL
		PROGRAM=BeamAdjust 1.2
		MEAS_DATE=07-Oct-2010 14:14:59
		LINAC=A4
		MODALITY=X
		INPLANE_AXIS_DIR=TARGET_GUN
		CROSSPLANE_AXIS_DIR=LEFT_RIGHT
		DEPTH_AXIS_DIR=UP_DOWN
		ENERGY=6.00
		SSD=950.00
		WEDGE=None
		FIELD_INPLANE=100.00
		FIELD_CROSSPLANE=100.00
		FIELD_TYPE=RECTANGULAR
		GANTRY=0.00
		GANTRY_UPRIGHT_POSITION=0
		GANTRY_ROTATION=CW
		COLL_ANGLE=90.00
		COLL_OFFSET_INPLANE=0.00
		COLL_OFFSET_CROSSPLANE=0.00
		SCAN_DEVICE=STARCHECK
		ELECTROMETER=2D_ARRAY_INTERFACE
		DETECTOR=STARCHECK
		SCAN_CURVETYPE=INPLANE_PROFILE
		SCAN_DEPTH=0.00
		SCAN_OFFAXIS_CROSSPLANE=0.00
		SCAN_ANGLE=0.00
		SCAN_DIAGONAL=FIRST_DIAGONAL
		MEAS_PRESET=TIME_PRESET
		MEAS_TIME=10.000
		MEAS_UNIT=GY
		PRESSURE=1013.25
		TEMPERATURE=20.00
		NORM_TEMPERATURE=20.00
		CORRECTION_FACTOR=1.0000
		CORRECTIONS=AIR_DENSITY_CORR;
		BEGIN_DATA
			-172.40		2.9176E-03
			-169.40		3.0955E-03
			-166.40		3.9997E-03
			-163.40		3.7405E-03
			-160.40		4.0206E-03
			-157.40		4.0558E-03
			-154.40		4.0623E-03
			-151.40		4.0298E-03
			-148.40		4.7544E-03
			-145.40		5.1912E-03
			-142.40		5.6493E-03
			-139.40		6.0618E-03
			-136.40		6.5054E-03
			-133.40		7.4634E-03
			-130.40		7.5274E-03
			-127.40		7.9609E-03
			-124.40		8.5526E-03
			-121.40		9.5046E-03
			-118.40		10.435E-03
			-115.40		11.235E-03
			-112.40		11.695E-03
			-109.40		13.162E-03
			-106.40		14.150E-03
			-103.40		14.949E-03
			-100.40		16.475E-03
			-97.40		18.874E-03
			-94.40		21.235E-03
			-91.40		23.638E-03
			-88.40		26.902E-03
			-85.40		30.429E-03
			-82.40		36.088E-03
			-79.40		45.349E-03
			-76.40		67.461E-03
			-73.40		151.09E-03
			-70.40		341.13E-03
			-67.40		509.02E-03
			-64.40		588.97E-03
			-61.40		618.63E-03
			-58.40		632.85E-03
			-55.40		642.10E-03
			-52.40		648.12E-03
			-49.40		652.37E-03
			-46.40		654.47E-03
			-43.40		656.71E-03
			-40.40		659.24E-03
			-37.40		663.74E-03
			-34.40		662.98E-03
			-31.40		664.59E-03
			-28.40		662.80E-03
			-25.40		665.64E-03
			-22.40		666.29E-03
			-19.40		667.25E-03
			-16.40		670.57E-03
			-13.40		671.91E-03
			0.00		669.42E-03
			13.40		672.33E-03
			16.40		667.88E-03
			19.40		667.64E-03
			22.40		666.74E-03
			25.40		665.53E-03
			28.40		664.23E-03
			31.40		661.29E-03
			34.40		658.13E-03
			37.40		659.75E-03
			40.40		656.51E-03
			43.40		652.71E-03
			46.40		649.88E-03
			49.40		642.37E-03
			52.40		634.92E-03
			55.40		616.43E-03
			58.40		582.09E-03
			61.40		492.17E-03
			64.40		336.28E-03
			67.40		168.80E-03
			70.40		76.440E-03
			73.40		48.852E-03
			76.40		37.817E-03
			79.40		31.884E-03
			82.40		27.879E-03
			85.40		24.355E-03
			88.40		22.316E-03
			91.40		19.671E-03
			94.40		17.913E-03
			97.40		16.648E-03
			100.40		14.641E-03
			103.40		13.818E-03
			106.40		12.617E-03
			109.40		11.575E-03
			112.40		10.125E-03
			115.40		9.5987E-03
			118.40		8.6638E-03
			121.40		8.1572E-03
			124.40		7.5604E-03
			127.40		7.2201E-03
			130.40		6.8098E-03
			133.40		5.6271E-03
			136.40		4.7487E-03
			139.40		4.9009E-03
			142.40		4.1192E-03
			145.40		4.0803E-03
			148.40		4.3870E-03
			151.40		3.5716E-03
			154.40		3.9659E-03
			157.40		3.7405E-03
			160.40		2.8420E-03
			163.40		2.7673E-03
			166.40		2.9197E-03
			169.40		2.7248E-03
			172.40		2.4624E-03
		END_DATA
	END_SCAN  15
	BEGIN_SCAN  16
		TASK_NAME=MODE_INTERVAL
		PROGRAM=BeamAdjust 1.2
		MEAS_DATE=07-Oct-2010 14:14:59
		LINAC=A4
		MODALITY=X
		INPLANE_AXIS_DIR=GUN_TARGET
		CROSSPLANE_AXIS_DIR=LEFT_RIGHT
		DEPTH_AXIS_DIR=UP_DOWN
		ENERGY=6.00
		SSD=950.00
		WEDGE=None
		FIELD_INPLANE=100.00
		FIELD_CROSSPLANE=100.00
		FIELD_TYPE=RECTANGULAR
		GANTRY=0.00
		GANTRY_UPRIGHT_POSITION=0
		GANTRY_ROTATION=CW
		COLL_ANGLE=90.00
		COLL_OFFSET_INPLANE=0.00
		COLL_OFFSET_CROSSPLANE=0.00
		SCAN_DEVICE=STARCHECK
		ELECTROMETER=2D_ARRAY_INTERFACE
		DETECTOR=STARCHECK
		SCAN_CURVETYPE=INPLANE_PROFILE
		SCAN_DEPTH=0.00
		SCAN_OFFAXIS_CROSSPLANE=0.00
		SCAN_ANGLE=0.00
		SCAN_DIAGONAL=SECOND_DIAGONAL
		MEAS_PRESET=TIME_PRESET
		MEAS_TIME=10.000
		MEAS_UNIT=GY
		PRESSURE=1013.25
		TEMPERATURE=20.00
		NORM_TEMPERATURE=20.00
		CORRECTION_FACTOR=1.0000
		CORRECTIONS=AIR_DENSITY_CORR;
		BEGIN_DATA
			-172.40		3.7409E-03
			-169.40		3.3412E-03
			-166.40		3.1915E-03
			-163.40		3.1367E-03
			-160.40		3.3325E-03
			-157.40		3.7459E-03
			-154.40		3.6653E-03
			-151.40		4.0247E-03
			-148.40		4.3566E-03
			-145.40		4.5975E-03
			-142.40		5.3256E-03
			-139.40		5.5825E-03
			-136.40		5.8666E-03
			-133.40		7.1529E-03
			-130.40		8.0028E-03
			-127.40		8.2632E-03
			-124.40		8.9187E-03
			-121.40		9.4448E-03
			-118.40		10.124E-03
			-115.40		10.380E-03
			-112.40		11.100E-03
			-109.40		12.727E-03
			-106.40		13.729E-03
			-103.40		15.080E-03
			-100.40		16.821E-03
			-97.40		18.340E-03
			-94.40		20.012E-03
			-91.40		22.647E-03
			-88.40		25.560E-03
			-85.40		28.405E-03
			-82.40		33.390E-03
			-79.40		41.446E-03
			-76.40		57.840E-03
			-73.40		111.99E-03
			-70.40		273.61E-03
			-67.40		458.58E-03
			-64.40		572.01E-03
			-61.40		615.64E-03
			-58.40		635.79E-03
			-55.40		644.09E-03
			-52.40		653.63E-03
			-49.40		657.52E-03
			-46.40		660.63E-03
			-43.40		662.76E-03
			-40.40		664.64E-03
			-37.40		667.76E-03
			-34.40		666.85E-03
			-31.40		667.34E-03
			-28.40		669.52E-03
			-25.40		667.86E-03
			-22.40		666.17E-03
			-19.40		670.03E-03
			-16.40		671.55E-03
			-13.40		673.69E-03
			0.00		669.42E-03
			13.40		670.80E-03
			16.40		668.11E-03
			19.40		665.41E-03
			22.40		662.83E-03
			25.40		662.66E-03
			28.40		661.22E-03
			31.40		659.42E-03
			34.40		655.90E-03
			37.40		655.16E-03
			40.40		653.02E-03
			43.40		650.64E-03
			46.40		647.56E-03
			49.40		642.15E-03
			52.40		630.93E-03
			55.40		616.43E-03
			58.40		589.34E-03
			61.40		511.33E-03
			64.40		363.78E-03
			67.40		187.16E-03
			70.40		82.433E-03
			73.40		50.012E-03
			76.40		38.161E-03
			79.40		31.885E-03
			82.40		28.648E-03
			85.40		25.395E-03
			88.40		22.637E-03
			91.40		20.589E-03
			94.40		18.491E-03
			97.40		16.964E-03
			100.40		14.625E-03
			103.40		13.794E-03
			106.40		12.648E-03
			109.40		11.373E-03
			112.40		10.504E-03
			115.40		9.5769E-03
			118.40		8.7280E-03
			121.40		8.0254E-03
			124.40		7.3601E-03
			127.40		6.7596E-03
			130.40		6.9456E-03
			133.40		6.1671E-03
			136.40		5.6107E-03
			139.40		5.8534E-03
			142.40		5.5787E-03
			145.40		5.2377E-03
			148.40		4.6366E-03
			151.40		3.9576E-03
			154.40		4.0484E-03
			157.40		3.9149E-03
			160.40		3.6023E-03
			163.40		3.7788E-03
			166.40		3.4173E-03
			169.40		2.7741E-03
			172.40		2.3193E-03
		END_DATA
	END_SCAN  16
END_SCAN_DATA
