BEGIN_SCAN_DATA
	FORMAT=CC-Export V1.9                  
	FILE_CREATION_DATE=07-Oct-2010 14:14:26
	LAST_MODIFIED=07-Oct-2010 14:14:26
	BEGIN_SCAN  1
		TASK_NAME=MODE_INTERVAL
		PROGRAM=BeamAdjust 1.2
		MEAS_DATE=07-Oct-2010 14:14:26
		LINAC=A4
		MODALITY=X
		INPLANE_AXIS_DIR=TARGET_GUN
		CROSSPLANE_AXIS_DIR=LEFT_RIGHT
		DEPTH_AXIS_DIR=UP_DOWN
		ENERGY=6.00
		SSD=950.00
		WEDGE=None
		FIELD_INPLANE=100.00
		FIELD_CROSSPLANE=100.00
		FIELD_TYPE=RECTANGULAR
		GANTRY=0.00
		GANTRY_UPRIGHT_POSITION=0
		GANTRY_ROTATION=CW
		COLL_ANGLE=90.00
		COLL_OFFSET_INPLANE=0.00
		COLL_OFFSET_CROSSPLANE=0.00
		SCAN_DEVICE=STARCHECK
		ELECTROMETER=2D_ARRAY_INTERFACE
		DETECTOR=STARCHECK
		SCAN_CURVETYPE=CROSSPLANE_PROFILE
		SCAN_DEPTH=0.00
		SCAN_OFFAXIS_INPLANE=-130.00
		SCAN_ANGLE=0.00
		SCAN_DIAGONAL=NOT_DIAGONAL
		MEAS_PRESET=TIME_PRESET
		MEAS_TIME=10.000
		MEAS_UNIT=GY
		PRESSURE=1013.25
		TEMPERATURE=20.00
		NORM_TEMPERATURE=20.00
		CORRECTION_FACTOR=1.0000
		CORRECTIONS=AIR_DENSITY_CORR;
		BEGIN_DATA
			-130.00		2.5535E-03
			-80.00		4.2000E-03
			-40.00		7.3238E-03
			40.00		6.8825E-03
			80.00		3.9248E-03
			130.00		1.8506E-03
		END_DATA
	END_SCAN  1
	BEGIN_SCAN  2
		TASK_NAME=MODE_INTERVAL
		PROGRAM=BeamAdjust 1.2
		MEAS_DATE=07-Oct-2010 14:14:26
		LINAC=A4
		MODALITY=X
		INPLANE_AXIS_DIR=TARGET_GUN
		CROSSPLANE_AXIS_DIR=LEFT_RIGHT
		DEPTH_AXIS_DIR=UP_DOWN
		ENERGY=6.00
		SSD=950.00
		WEDGE=None
		FIELD_INPLANE=100.00
		FIELD_CROSSPLANE=100.00
		FIELD_TYPE=RECTANGULAR
		GANTRY=0.00
		GANTRY_UPRIGHT_POSITION=0
		GANTRY_ROTATION=CW
		COLL_ANGLE=90.00
		COLL_OFFSET_INPLANE=0.00
		COLL_OFFSET_CROSSPLANE=0.00
		SCAN_DEVICE=STARCHECK
		ELECTROMETER=2D_ARRAY_INTERFACE
		DETECTOR=STARCHECK
		SCAN_CURVETYPE=CROSSPLANE_PROFILE
		SCAN_DEPTH=0.00
		SCAN_OFFAXIS_INPLANE=-100.00
		SCAN_ANGLE=0.00
		SCAN_DIAGONAL=NOT_DIAGONAL
		MEAS_PRESET=TIME_PRESET
		MEAS_TIME=10.000
		MEAS_UNIT=GY
		PRESSURE=1013.25
		TEMPERATURE=20.00
		NORM_TEMPERATURE=20.00
		CORRECTION_FACTOR=1.0000
		CORRECTIONS=AIR_DENSITY_CORR;
		BEGIN_DATA
			-60.00		11.943E-03
			-30.00		15.541E-03
			30.00		16.076E-03
			60.00		10.818E-03
		END_DATA
	END_SCAN  2
	BEGIN_SCAN  3
		TASK_NAME=MODE_INTERVAL
		PROGRAM=BeamAdjust 1.2
		MEAS_DATE=07-Oct-2010 14:14:26
		LINAC=A4
		MODALITY=X
		INPLANE_AXIS_DIR=TARGET_GUN
		CROSSPLANE_AXIS_DIR=LEFT_RIGHT
		DEPTH_AXIS_DIR=UP_DOWN
		ENERGY=6.00
		SSD=950.00
		WEDGE=None
		FIELD_INPLANE=100.00
		FIELD_CROSSPLANE=100.00
		FIELD_TYPE=RECTANGULAR
		GANTRY=0.00
		GANTRY_UPRIGHT_POSITION=0
		GANTRY_ROTATION=CW
		COLL_ANGLE=90.00
		COLL_OFFSET_INPLANE=0.00
		COLL_OFFSET_CROSSPLANE=0.00
		SCAN_DEVICE=STARCHECK
		ELECTROMETER=2D_ARRAY_INTERFACE
		DETECTOR=STARCHECK
		SCAN_CURVETYPE=CROSSPLANE_PROFILE
		SCAN_DEPTH=0.00
		SCAN_OFFAXIS_INPLANE=-50.00
		SCAN_ANGLE=0.00
		SCAN_DIAGONAL=NOT_DIAGONAL
		MEAS_PRESET=TIME_PRESET
		MEAS_TIME=10.000
		MEAS_UNIT=GY
		PRESSURE=1013.25
		TEMPERATURE=20.00
		NORM_TEMPERATURE=20.00
		CORRECTION_FACTOR=1.0000
		CORRECTIONS=AIR_DENSITY_CORR;
		BEGIN_DATA
			-30.00		587.90E-03
			-15.00		569.33E-03
			15.00		587.44E-03
			30.00		588.49E-03
		END_DATA
	END_SCAN  3
	BEGIN_SCAN  4
		TASK_NAME=MODE_INTERVAL
		PROGRAM=BeamAdjust 1.2
		MEAS_DATE=07-Oct-2010 14:14:26
		LINAC=A4
		MODALITY=X
		INPLANE_AXIS_DIR=TARGET_GUN
		CROSSPLANE_AXIS_DIR=LEFT_RIGHT
		DEPTH_AXIS_DIR=UP_DOWN
		ENERGY=6.00
		SSD=950.00
		WEDGE=None
		FIELD_INPLANE=100.00
		FIELD_CROSSPLANE=100.00
		FIELD_TYPE=RECTANGULAR
		GANTRY=0.00
		GANTRY_UPRIGHT_POSITION=0
		GANTRY_ROTATION=CW
		COLL_ANGLE=90.00
		COLL_OFFSET_INPLANE=0.00
		COLL_OFFSET_CROSSPLANE=0.00
		SCAN_DEVICE=STARCHECK
		ELECTROMETER=2D_ARRAY_INTERFACE
		DETECTOR=STARCHECK
		SCAN_CURVETYPE=CROSSPLANE_PROFILE
		SCAN_DEPTH=0.00
		SCAN_OFFAXIS_INPLANE=0.00
		SCAN_ANGLE=0.00
		SCAN_DIAGONAL=NOT_DIAGONAL
		MEAS_PRESET=TIME_PRESET
		MEAS_TIME=10.000
		MEAS_UNIT=GY
		PRESSURE=1013.25
		TEMPERATURE=20.00
		NORM_TEMPERATURE=20.00
		CORRECTION_FACTOR=1.0000
		CORRECTIONS=AIR_DENSITY_CORR;
		BEGIN_DATA
			-126.00		6.5036E-03
			-123.00		7.3935E-03
			-120.00		7.7262E-03
			-117.00		8.6697E-03
			-114.00		8.9033E-03
			-111.00		9.5756E-03
			-108.00		10.518E-03
			-105.00		11.033E-03
			-102.00		11.772E-03
			-99.00		12.754E-03
			-96.00		14.275E-03
			-93.00		15.273E-03
			-90.00		16.564E-03
			-87.00		18.070E-03
			-84.00		20.379E-03
			-81.00		22.076E-03
			-78.00		24.103E-03
			-75.00		27.043E-03
			-72.00		29.626E-03
			-69.00		34.020E-03
			-66.00		39.132E-03
			-63.00		45.006E-03
			-60.00		54.742E-03
			-57.00		72.502E-03
			-54.00		114.93E-03
			-51.00		292.46E-03
			-48.00		555.39E-03
			-45.00		617.08E-03
			-42.00		636.29E-03
			-39.00		648.59E-03
			-36.00		654.72E-03
			-33.00		654.53E-03
			-30.00		656.48E-03
			-27.00		659.15E-03
			-24.00		661.79E-03
			-21.00		661.36E-03
			-18.00		667.02E-03
			-15.00		667.45E-03
			-12.00		667.47E-03
			-9.00		670.03E-03
			-6.00		669.47E-03
			0.00		668.76E-03
			6.00		671.59E-03
			9.00		670.58E-03
			12.00		667.64E-03
			15.00		666.73E-03
			18.00		665.98E-03
			21.00		664.35E-03
			24.00		660.77E-03
			27.00		664.77E-03
			30.00		663.18E-03
			33.00		660.82E-03
			36.00		657.11E-03
			39.00		651.68E-03
			42.00		639.62E-03
			45.00		614.62E-03
			48.00		524.68E-03
			51.00		231.41E-03
			54.00		101.73E-03
			57.00		68.165E-03
			60.00		52.763E-03
			63.00		43.876E-03
			66.00		37.394E-03
			69.00		32.719E-03
			72.00		29.314E-03
			75.00		26.345E-03
			78.00		23.701E-03
			81.00		22.369E-03
			84.00		19.801E-03
			87.00		17.677E-03
			90.00		16.714E-03
			93.00		14.912E-03
			96.00		13.271E-03
			99.00		12.636E-03
			102.00		11.717E-03
			105.00		10.688E-03
			108.00		10.358E-03
			111.00		9.0316E-03
			114.00		8.5565E-03
			117.00		7.9843E-03
			120.00		7.1194E-03
			123.00		7.4837E-03
			126.00		6.9199E-03
		END_DATA
	END_SCAN  4
	BEGIN_SCAN  5
		TASK_NAME=MODE_INTERVAL
		PROGRAM=BeamAdjust 1.2
		MEAS_DATE=07-Oct-2010 14:14:26
		LINAC=A4
		MODALITY=X
		INPLANE_AXIS_DIR=TARGET_GUN
		CROSSPLANE_AXIS_DIR=LEFT_RIGHT
		DEPTH_AXIS_DIR=UP_DOWN
		ENERGY=6.00
		SSD=950.00
		WEDGE=None
		FIELD_INPLANE=100.00
		FIELD_CROSSPLANE=100.00
		FIELD_TYPE=RECTANGULAR
		GANTRY=0.00
		GANTRY_UPRIGHT_POSITION=0
		GANTRY_ROTATION=CW
		COLL_ANGLE=90.00
		COLL_OFFSET_INPLANE=0.00
		COLL_OFFSET_CROSSPLANE=0.00
		SCAN_DEVICE=STARCHECK
		ELECTROMETER=2D_ARRAY_INTERFACE
		DETECTOR=STARCHECK
		SCAN_CURVETYPE=CROSSPLANE_PROFILE
		SCAN_DEPTH=0.00
		SCAN_OFFAXIS_INPLANE=50.00
		SCAN_ANGLE=0.00
		SCAN_DIAGONAL=NOT_DIAGONAL
		MEAS_PRESET=TIME_PRESET
		MEAS_TIME=10.000
		MEAS_UNIT=GY
		PRESSURE=1013.25
		TEMPERATURE=20.00
		NORM_TEMPERATURE=20.00
		CORRECTION_FACTOR=1.0000
		CORRECTIONS=AIR_DENSITY_CORR;
		BEGIN_DATA
			-30.00		115.32E-03
			-15.00		118.35E-03
			15.00		108.95E-03
			30.00		111.66E-03
		END_DATA
	END_SCAN  5
	BEGIN_SCAN  6
		TASK_NAME=MODE_INTERVAL
		PROGRAM=BeamAdjust 1.2
		MEAS_DATE=07-Oct-2010 14:14:26
		LINAC=A4
		MODALITY=X
		INPLANE_AXIS_DIR=TARGET_GUN
		CROSSPLANE_AXIS_DIR=LEFT_RIGHT
		DEPTH_AXIS_DIR=UP_DOWN
		ENERGY=6.00
		SSD=950.00
		WEDGE=None
		FIELD_INPLANE=100.00
		FIELD_CROSSPLANE=100.00
		FIELD_TYPE=RECTANGULAR
		GANTRY=0.00
		GANTRY_UPRIGHT_POSITION=0
		GANTRY_ROTATION=CW
		COLL_ANGLE=90.00
		COLL_OFFSET_INPLANE=0.00
		COLL_OFFSET_CROSSPLANE=0.00
		SCAN_DEVICE=STARCHECK
		ELECTROMETER=2D_ARRAY_INTERFACE
		DETECTOR=STARCHECK
		SCAN_CURVETYPE=CROSSPLANE_PROFILE
		SCAN_DEPTH=0.00
		SCAN_OFFAXIS_INPLANE=100.00
		SCAN_ANGLE=0.00
		SCAN_DIAGONAL=NOT_DIAGONAL
		MEAS_PRESET=TIME_PRESET
		MEAS_TIME=10.000
		MEAS_UNIT=GY
		PRESSURE=1013.25
		TEMPERATURE=20.00
		NORM_TEMPERATURE=20.00
		CORRECTION_FACTOR=1.0000
		CORRECTIONS=AIR_DENSITY_CORR;
		BEGIN_DATA
			-60.00		9.7437E-03
			-30.00		13.964E-03
			30.00		14.014E-03
			60.00		8.4645E-03
		END_DATA
	END_SCAN  6
	BEGIN_SCAN  7
		TASK_NAME=MODE_INTERVAL
		PROGRAM=BeamAdjust 1.2
		MEAS_DATE=07-Oct-2010 14:14:26
		LINAC=A4
		MODALITY=X
		INPLANE_AXIS_DIR=TARGET_GUN
		CROSSPLANE_AXIS_DIR=LEFT_RIGHT
		DEPTH_AXIS_DIR=UP_DOWN
		ENERGY=6.00
		SSD=950.00
		WEDGE=None
		FIELD_INPLANE=100.00
		FIELD_CROSSPLANE=100.00
		FIELD_TYPE=RECTANGULAR
		GANTRY=0.00
		GANTRY_UPRIGHT_POSITION=0
		GANTRY_ROTATION=CW
		COLL_ANGLE=90.00
		COLL_OFFSET_INPLANE=0.00
		COLL_OFFSET_CROSSPLANE=0.00
		SCAN_DEVICE=STARCHECK
		ELECTROMETER=2D_ARRAY_INTERFACE
		DETECTOR=STARCHECK
		SCAN_CURVETYPE=CROSSPLANE_PROFILE
		SCAN_DEPTH=0.00
		SCAN_OFFAXIS_INPLANE=130.00
		SCAN_ANGLE=0.00
		SCAN_DIAGONAL=NOT_DIAGONAL
		MEAS_PRESET=TIME_PRESET
		MEAS_TIME=10.000
		MEAS_UNIT=GY
		PRESSURE=1013.25
		TEMPERATURE=20.00
		NORM_TEMPERATURE=20.00
		CORRECTION_FACTOR=1.0000
		CORRECTIONS=AIR_DENSITY_CORR;
		BEGIN_DATA
			-130.00		1.9410E-03
			-80.00		3.6258E-03
			-40.00		6.9425E-03
			40.00		6.7372E-03
			80.00		3.9123E-03
			130.00		2.1806E-03
		END_DATA
	END_SCAN  7
	BEGIN_SCAN  8
		TASK_NAME=MODE_INTERVAL
		PROGRAM=BeamAdjust 1.2
		MEAS_DATE=07-Oct-2010 14:14:26
		LINAC=A4
		MODALITY=X
		INPLANE_AXIS_DIR=TARGET_GUN
		CROSSPLANE_AXIS_DIR=LEFT_RIGHT
		DEPTH_AXIS_DIR=UP_DOWN
		ENERGY=6.00
		SSD=950.00
		WEDGE=None
		FIELD_INPLANE=100.00
		FIELD_CROSSPLANE=100.00
		FIELD_TYPE=RECTANGULAR
		GANTRY=0.00
		GANTRY_UPRIGHT_POSITION=0
		GANTRY_ROTATION=CW
		COLL_ANGLE=90.00
		COLL_OFFSET_INPLANE=0.00
		COLL_OFFSET_CROSSPLANE=0.00
		SCAN_DEVICE=STARCHECK
		ELECTROMETER=2D_ARRAY_INTERFACE
		DETECTOR=STARCHECK
		SCAN_CURVETYPE=INPLANE_PROFILE
		SCAN_DEPTH=0.00
		SCAN_OFFAXIS_CROSSPLANE=-130.00
		SCAN_ANGLE=0.00
		SCAN_DIAGONAL=NOT_DIAGONAL
		MEAS_PRESET=TIME_PRESET
		MEAS_TIME=10.000
		MEAS_UNIT=GY
		PRESSURE=1013.25
		TEMPERATURE=20.00
		NORM_TEMPERATURE=20.00
		CORRECTION_FACTOR=1.0000
		CORRECTIONS=AIR_DENSITY_CORR;
		BEGIN_DATA
			-130.00		2.5535E-03
			-125.00		2.6652E-03
			-120.00		3.0919E-03
			-115.00		3.2962E-03
			-110.00		3.3915E-03
			-105.00		3.8718E-03
			-100.00		4.3886E-03
			-95.00		4.6947E-03
			-90.00		4.8213E-03
			-85.00		4.4563E-03
			-80.00		4.4849E-03
			-75.00		4.9291E-03
			-70.00		4.8304E-03
			-65.00		5.0390E-03
			-60.00		5.1263E-03
			-55.00		5.9437E-03
			-50.00		4.4020E-03
			-45.00		4.8645E-03
			-40.00		5.1796E-03
			-35.00		6.1406E-03
			-30.00		5.7317E-03
			-25.00		5.2128E-03
			-20.00		5.0425E-03
			-15.00		4.7250E-03
			-10.00		5.2094E-03
			-5.00		6.3063E-03
			0.00		6.0216E-03
			5.00		6.4928E-03
			10.00		6.0182E-03
			15.00		5.7140E-03
			20.00		5.8920E-03
			25.00		4.9422E-03
			30.00		5.4109E-03
			35.00		5.6685E-03
			40.00		4.6575E-03
			45.00		4.5361E-03
			50.00		4.8539E-03
			55.00		4.1228E-03
			60.00		4.6800E-03
			65.00		4.2518E-03
			70.00		3.9864E-03
			75.00		4.0193E-03
			80.00		3.3680E-03
			85.00		3.5074E-03
			90.00		3.1029E-03
			95.00		3.1096E-03
			100.00		2.8995E-03
			105.00		2.9719E-03
			110.00		2.6648E-03
			115.00		2.2534E-03
			120.00		2.3981E-03
			125.00		2.4564E-03
			130.00		1.9410E-03
		END_DATA
	END_SCAN  8
	BEGIN_SCAN  9
		TASK_NAME=MODE_INTERVAL
		PROGRAM=BeamAdjust 1.2
		MEAS_DATE=07-Oct-2010 14:14:26
		LINAC=A4
		MODALITY=X
		INPLANE_AXIS_DIR=TARGET_GUN
		CROSSPLANE_AXIS_DIR=LEFT_RIGHT
		DEPTH_AXIS_DIR=UP_DOWN
		ENERGY=6.00
		SSD=950.00
		WEDGE=None
		FIELD_INPLANE=100.00
		FIELD_CROSSPLANE=100.00
		FIELD_TYPE=RECTANGULAR
		GANTRY=0.00
		GANTRY_UPRIGHT_POSITION=0
		GANTRY_ROTATION=CW
		COLL_ANGLE=90.00
		COLL_OFFSET_INPLANE=0.00
		COLL_OFFSET_CROSSPLANE=0.00
		SCAN_DEVICE=STARCHECK
		ELECTROMETER=2D_ARRAY_INTERFACE
		DETECTOR=STARCHECK
		SCAN_CURVETYPE=INPLANE_PROFILE
		SCAN_DEPTH=0.00
		SCAN_OFFAXIS_CROSSPLANE=-100.00
		SCAN_ANGLE=0.00
		SCAN_DIAGONAL=NOT_DIAGONAL
		MEAS_PRESET=TIME_PRESET
		MEAS_TIME=10.000
		MEAS_UNIT=GY
		PRESSURE=1013.25
		TEMPERATURE=20.00
		NORM_TEMPERATURE=20.00
		CORRECTION_FACTOR=1.0000
		CORRECTIONS=AIR_DENSITY_CORR;
		BEGIN_DATA
			-60.00		8.7059E-03
			-30.00		10.729E-03
			30.00		10.050E-03
			60.00		7.5302E-03
		END_DATA
	END_SCAN  9
	BEGIN_SCAN  10
		TASK_NAME=MODE_INTERVAL
		PROGRAM=BeamAdjust 1.2
		MEAS_DATE=07-Oct-2010 14:14:26
		LINAC=A4
		MODALITY=X
		INPLANE_AXIS_DIR=TARGET_GUN
		CROSSPLANE_AXIS_DIR=LEFT_RIGHT
		DEPTH_AXIS_DIR=UP_DOWN
		ENERGY=6.00
		SSD=950.00
		WEDGE=None
		FIELD_INPLANE=100.00
		FIELD_CROSSPLANE=100.00
		FIELD_TYPE=RECTANGULAR
		GANTRY=0.00
		GANTRY_UPRIGHT_POSITION=0
		GANTRY_ROTATION=CW
		COLL_ANGLE=90.00
		COLL_OFFSET_INPLANE=0.00
		COLL_OFFSET_CROSSPLANE=0.00
		SCAN_DEVICE=STARCHECK
		ELECTROMETER=2D_ARRAY_INTERFACE
		DETECTOR=STARCHECK
		SCAN_CURVETYPE=INPLANE_PROFILE
		SCAN_DEPTH=0.00
		SCAN_OFFAXIS_CROSSPLANE=-50.00
		SCAN_ANGLE=0.00
		SCAN_DIAGONAL=NOT_DIAGONAL
		MEAS_PRESET=TIME_PRESET
		MEAS_TIME=10.000
		MEAS_UNIT=GY
		PRESSURE=1013.25
		TEMPERATURE=20.00
		NORM_TEMPERATURE=20.00
		CORRECTION_FACTOR=1.0000
		CORRECTIONS=AIR_DENSITY_CORR;
		BEGIN_DATA
			-30.00		399.30E-03
			-15.00		395.17E-03
			15.00		384.01E-03
			30.00		371.57E-03
		END_DATA
	END_SCAN  10
	BEGIN_SCAN  11
		TASK_NAME=MODE_INTERVAL
		PROGRAM=BeamAdjust 1.2
		MEAS_DATE=07-Oct-2010 14:14:26
		LINAC=A4
		MODALITY=X
		INPLANE_AXIS_DIR=TARGET_GUN
		CROSSPLANE_AXIS_DIR=LEFT_RIGHT
		DEPTH_AXIS_DIR=UP_DOWN
		ENERGY=6.00
		SSD=950.00
		WEDGE=None
		FIELD_INPLANE=100.00
		FIELD_CROSSPLANE=100.00
		FIELD_TYPE=RECTANGULAR
		GANTRY=0.00
		GANTRY_UPRIGHT_POSITION=0
		GANTRY_ROTATION=CW
		COLL_ANGLE=90.00
		COLL_OFFSET_INPLANE=0.00
		COLL_OFFSET_CROSSPLANE=0.00
		SCAN_DEVICE=STARCHECK
		ELECTROMETER=2D_ARRAY_INTERFACE
		DETECTOR=STARCHECK
		SCAN_CURVETYPE=INPLANE_PROFILE
		SCAN_DEPTH=0.00
		SCAN_OFFAXIS_CROSSPLANE=0.00
		SCAN_ANGLE=0.00
		SCAN_DIAGONAL=NOT_DIAGONAL
		MEAS_PRESET=TIME_PRESET
		MEAS_TIME=10.000
		MEAS_UNIT=GY
		PRESSURE=1013.25
		TEMPERATURE=20.00
		NORM_TEMPERATURE=20.00
		CORRECTION_FACTOR=1.0000
		CORRECTIONS=AIR_DENSITY_CORR;
		BEGIN_DATA
			-126.00		9.5339E-03
			-123.00		9.5050E-03
			-120.00		10.861E-03
			-117.00		11.972E-03
			-114.00		12.677E-03
			-111.00		13.544E-03
			-108.00		14.653E-03
			-105.00		15.886E-03
			-102.00		17.315E-03
			-99.00		18.009E-03
			-96.00		19.581E-03
			-93.00		22.433E-03
			-90.00		23.532E-03
			-87.00		25.371E-03
			-84.00		27.820E-03
			-81.00		30.486E-03
			-78.00		33.528E-03
			-75.00		36.698E-03
			-72.00		40.784E-03
			-69.00		45.622E-03
			-66.00		52.630E-03
			-63.00		62.394E-03
			-60.00		81.664E-03
			-57.00		133.32E-03
			-54.00		305.02E-03
			-51.00		555.01E-03
			-48.00		624.92E-03
			-45.00		644.39E-03
			-42.00		653.07E-03
			-39.00		658.25E-03
			-36.00		661.69E-03
			-33.00		663.40E-03
			-30.00		666.40E-03
			-27.00		667.16E-03
			-24.00		666.33E-03
			-21.00		666.71E-03
			-18.00		673.50E-03
			-15.00		670.67E-03
			-12.00		669.98E-03
			-9.00		670.06E-03
			-6.00		666.86E-03
			0.00		668.76E-03
			6.00		672.56E-03
			9.00		670.39E-03
			12.00		668.10E-03
			15.00		666.49E-03
			18.00		663.24E-03
			21.00		663.14E-03
			24.00		659.06E-03
			27.00		659.72E-03
			30.00		654.15E-03
			33.00		650.48E-03
			36.00		645.19E-03
			39.00		628.02E-03
			42.00		594.25E-03
			45.00		436.31E-03
			48.00		187.68E-03
			51.00		99.392E-03
			54.00		68.968E-03
			57.00		56.172E-03
			60.00		48.389E-03
			63.00		42.517E-03
			66.00		38.479E-03
			69.00		34.565E-03
			72.00		31.478E-03
			75.00		28.585E-03
			78.00		25.630E-03
			81.00		24.250E-03
			84.00		22.195E-03
			87.00		20.396E-03
			90.00		19.025E-03
			93.00		17.336E-03
			96.00		16.364E-03
			99.00		15.036E-03
			102.00		13.632E-03
			105.00		12.837E-03
			108.00		12.518E-03
			111.00		11.344E-03
			114.00		10.656E-03
			117.00		9.5652E-03
			120.00		9.0638E-03
			123.00		8.8045E-03
			126.00		7.6840E-03
		END_DATA
	END_SCAN  11
	BEGIN_SCAN  12
		TASK_NAME=MODE_INTERVAL
		PROGRAM=BeamAdjust 1.2
		MEAS_DATE=07-Oct-2010 14:14:26
		LINAC=A4
		MODALITY=X
		INPLANE_AXIS_DIR=TARGET_GUN
		CROSSPLANE_AXIS_DIR=LEFT_RIGHT
		DEPTH_AXIS_DIR=UP_DOWN
		ENERGY=6.00
		SSD=950.00
		WEDGE=None
		FIELD_INPLANE=100.00
		FIELD_CROSSPLANE=100.00
		FIELD_TYPE=RECTANGULAR
		GANTRY=0.00
		GANTRY_UPRIGHT_POSITION=0
		GANTRY_ROTATION=CW
		COLL_ANGLE=90.00
		COLL_OFFSET_INPLANE=0.00
		COLL_OFFSET_CROSSPLANE=0.00
		SCAN_DEVICE=STARCHECK
		ELECTROMETER=2D_ARRAY_INTERFACE
		DETECTOR=STARCHECK
		SCAN_CURVETYPE=INPLANE_PROFILE
		SCAN_DEPTH=0.00
		SCAN_OFFAXIS_CROSSPLANE=50.00
		SCAN_ANGLE=0.00
		SCAN_DIAGONAL=NOT_DIAGONAL
		MEAS_PRESET=TIME_PRESET
		MEAS_TIME=10.000
		MEAS_UNIT=GY
		PRESSURE=1013.25
		TEMPERATURE=20.00
		NORM_TEMPERATURE=20.00
		CORRECTION_FACTOR=1.0000
		CORRECTIONS=AIR_DENSITY_CORR;
		BEGIN_DATA
			-30.00		326.60E-03
			-15.00		334.69E-03
			15.00		341.98E-03
			30.00		341.51E-03
		END_DATA
	END_SCAN  12
	BEGIN_SCAN  13
		TASK_NAME=MODE_INTERVAL
		PROGRAM=BeamAdjust 1.2
		MEAS_DATE=07-Oct-2010 14:14:26
		LINAC=A4
		MODALITY=X
		INPLANE_AXIS_DIR=TARGET_GUN
		CROSSPLANE_AXIS_DIR=LEFT_RIGHT
		DEPTH_AXIS_DIR=UP_DOWN
		ENERGY=6.00
		SSD=950.00
		WEDGE=None
		FIELD_INPLANE=100.00
		FIELD_CROSSPLANE=100.00
		FIELD_TYPE=RECTANGULAR
		GANTRY=0.00
		GANTRY_UPRIGHT_POSITION=0
		GANTRY_ROTATION=CW
		COLL_ANGLE=90.00
		COLL_OFFSET_INPLANE=0.00
		COLL_OFFSET_CROSSPLANE=0.00
		SCAN_DEVICE=STARCHECK
		ELECTROMETER=2D_ARRAY_INTERFACE
		DETECTOR=STARCHECK
		SCAN_CURVETYPE=INPLANE_PROFILE
		SCAN_DEPTH=0.00
		SCAN_OFFAXIS_CROSSPLANE=100.00
		SCAN_ANGLE=0.00
		SCAN_DIAGONAL=NOT_DIAGONAL
		MEAS_PRESET=TIME_PRESET
		MEAS_TIME=10.000
		MEAS_UNIT=GY
		PRESSURE=1013.25
		TEMPERATURE=20.00
		NORM_TEMPERATURE=20.00
		CORRECTION_FACTOR=1.0000
		CORRECTIONS=AIR_DENSITY_CORR;
		BEGIN_DATA
			-60.00		8.0736E-03
			-30.00		10.409E-03
			30.00		10.014E-03
			60.00		7.0127E-03
		END_DATA
	END_SCAN  13
	BEGIN_SCAN  14
		TASK_NAME=MODE_INTERVAL
		PROGRAM=BeamAdjust 1.2
		MEAS_DATE=07-Oct-2010 14:14:26
		LINAC=A4
		MODALITY=X
		INPLANE_AXIS_DIR=TARGET_GUN
		CROSSPLANE_AXIS_DIR=LEFT_RIGHT
		DEPTH_AXIS_DIR=UP_DOWN
		ENERGY=6.00
		SSD=950.00
		WEDGE=None
		FIELD_INPLANE=100.00
		FIELD_CROSSPLANE=100.00
		FIELD_TYPE=RECTANGULAR
		GANTRY=0.00
		GANTRY_UPRIGHT_POSITION=0
		GANTRY_ROTATION=CW
		COLL_ANGLE=90.00
		COLL_OFFSET_INPLANE=0.00
		COLL_OFFSET_CROSSPLANE=0.00
		SCAN_DEVICE=STARCHECK
		ELECTROMETER=2D_ARRAY_INTERFACE
		DETECTOR=STARCHECK
		SCAN_CURVETYPE=INPLANE_PROFILE
		SCAN_DEPTH=0.00
		SCAN_OFFAXIS_CROSSPLANE=130.00
		SCAN_ANGLE=0.00
		SCAN_DIAGONAL=NOT_DIAGONAL
		MEAS_PRESET=TIME_PRESET
		MEAS_TIME=10.000
		MEAS_UNIT=GY
		PRESSURE=1013.25
		TEMPERATURE=20.00
		NORM_TEMPERATURE=20.00
		CORRECTION_FACTOR=1.0000
		CORRECTIONS=AIR_DENSITY_CORR;
		BEGIN_DATA
			-130.00		1.8506E-03
			-125.00		2.5404E-03
			-120.00		2.3945E-03
			-115.00		2.7256E-03
			-110.00		2.8430E-03
			-105.00		3.0395E-03
			-100.00		3.3686E-03
			-95.00		3.1904E-03
			-90.00		3.3663E-03
			-85.00		3.6427E-03
			-80.00		3.4704E-03
			-75.00		3.4652E-03
			-70.00		4.0015E-03
			-65.00		3.9613E-03
			-60.00		5.0202E-03
			-55.00		4.6056E-03
			-50.00		4.7596E-03
			-45.00		5.0618E-03
			-40.00		5.1373E-03
			-35.00		4.9696E-03
			-30.00		5.1167E-03
			-25.00		4.9105E-03
			-20.00		5.8200E-03
			-15.00		5.3000E-03
			-10.00		4.9543E-03
			-5.00		6.1864E-03
			0.00		6.1743E-03
			5.00		5.6066E-03
			10.00		5.7532E-03
			15.00		5.3621E-03
			20.00		5.3291E-03
			25.00		5.3887E-03
			30.00		4.9093E-03
			35.00		4.9814E-03
			40.00		5.4577E-03
			45.00		4.8084E-03
			50.00		5.1716E-03
			55.00		5.0436E-03
			60.00		4.6223E-03
			65.00		4.1182E-03
			70.00		4.1937E-03
			75.00		4.3092E-03
			80.00		3.9214E-03
			85.00		3.5218E-03
			90.00		3.1675E-03
			95.00		3.1455E-03
			100.00		3.3313E-03
			105.00		2.5610E-03
			110.00		2.7004E-03
			115.00		2.8316E-03
			120.00		3.0398E-03
			125.00		2.4349E-03
			130.00		2.1806E-03
		END_DATA
	END_SCAN  14
	BEGIN_SCAN  15
		TASK_NAME=MODE_INTERVAL
		PROGRAM=BeamAdjust 1.2
		MEAS_DATE=07-Oct-2010 14:14:26
		LINAC=A4
		MODALITY=X
		INPLANE_AXIS_DIR=TARGET_GUN
		CROSSPLANE_AXIS_DIR=LEFT_RIGHT
		DEPTH_AXIS_DIR=UP_DOWN
		ENERGY=6.00
		SSD=950.00
		WEDGE=None
		FIELD_INPLANE=100.00
		FIELD_CROSSPLANE=100.00
		FIELD_TYPE=RECTANGULAR
		GANTRY=0.00
		GANTRY_UPRIGHT_POSITION=0
		GANTRY_ROTATION=CW
		COLL_ANGLE=90.00
		COLL_OFFSET_INPLANE=0.00
		COLL_OFFSET_CROSSPLANE=0.00
		SCAN_DEVICE=STARCHECK
		ELECTROMETER=2D_ARRAY_INTERFACE
		DETECTOR=STARCHECK
		SCAN_CURVETYPE=INPLANE_PROFILE
		SCAN_DEPTH=0.00
		SCAN_OFFAXIS_CROSSPLANE=0.00
		SCAN_ANGLE=0.00
		SCAN_DIAGONAL=FIRST_DIAGONAL
		MEAS_PRESET=TIME_PRESET
		MEAS_TIME=10.000
		MEAS_UNIT=GY
		PRESSURE=1013.25
		TEMPERATURE=20.00
		NORM_TEMPERATURE=20.00
		CORRECTION_FACTOR=1.0000
		CORRECTIONS=AIR_DENSITY_CORR;
		BEGIN_DATA
			-172.40		2.4689E-03
			-169.40		3.0446E-03
			-166.40		3.8830E-03
			-163.40		4.0107E-03
			-160.40		4.2295E-03
			-157.40		4.3925E-03
			-154.40		4.1693E-03
			-151.40		4.0254E-03
			-148.40		4.8140E-03
			-145.40		5.2612E-03
			-142.40		5.5603E-03
			-139.40		6.3358E-03
			-136.40		6.6380E-03
			-133.40		7.1619E-03
			-130.40		7.6225E-03
			-127.40		7.9505E-03
			-124.40		8.5763E-03
			-121.40		9.3625E-03
			-118.40		10.279E-03
			-115.40		11.138E-03
			-112.40		11.753E-03
			-109.40		13.315E-03
			-106.40		14.449E-03
			-103.40		15.271E-03
			-100.40		16.590E-03
			-97.40		19.369E-03
			-94.40		21.167E-03
			-91.40		23.601E-03
			-88.40		26.855E-03
			-85.40		30.457E-03
			-82.40		36.333E-03
			-79.40		46.109E-03
			-76.40		69.476E-03
			-73.40		159.12E-03
			-70.40		349.27E-03
			-67.40		511.43E-03
			-64.40		589.85E-03
			-61.40		618.68E-03
			-58.40		632.88E-03
			-55.40		642.42E-03
			-52.40		647.50E-03
			-49.40		652.11E-03
			-46.40		653.82E-03
			-43.40		656.09E-03
			-40.40		658.52E-03
			-37.40		662.90E-03
			-34.40		661.78E-03
			-31.40		663.54E-03
			-28.40		661.84E-03
			-25.40		665.00E-03
			-22.40		666.04E-03
			-19.40		667.31E-03
			-16.40		670.10E-03
			-13.40		672.05E-03
			0.00		668.76E-03
			13.40		670.70E-03
			16.40		666.51E-03
			19.40		666.19E-03
			22.40		665.12E-03
			25.40		664.13E-03
			28.40		662.84E-03
			31.40		660.15E-03
			34.40		656.61E-03
			37.40		658.68E-03
			40.40		655.32E-03
			43.40		651.23E-03
			46.40		648.60E-03
			49.40		640.75E-03
			52.40		633.18E-03
			55.40		612.23E-03
			58.40		574.01E-03
			61.40		475.28E-03
			64.40		316.43E-03
			67.40		156.01E-03
			70.40		72.661E-03
			73.40		47.568E-03
			76.40		37.113E-03
			79.40		31.716E-03
			82.40		27.694E-03
			85.40		24.237E-03
			88.40		22.034E-03
			91.40		19.483E-03
			94.40		18.329E-03
			97.40		16.130E-03
			100.40		14.605E-03
			103.40		13.735E-03
			106.40		12.364E-03
			109.40		11.431E-03
			112.40		9.6280E-03
			115.40		9.3775E-03
			118.40		8.3341E-03
			121.40		8.0770E-03
			124.40		7.6479E-03
			127.40		7.3697E-03
			130.40		6.9711E-03
			133.40		5.5264E-03
			136.40		5.3556E-03
			139.40		4.3442E-03
			142.40		4.2981E-03
			145.40		4.3270E-03
			148.40		4.5823E-03
			151.40		3.8515E-03
			154.40		4.0360E-03
			157.40		3.3856E-03
			160.40		2.5245E-03
			163.40		2.2493E-03
			166.40		2.3367E-03
			169.40		2.2975E-03
			172.40		2.2773E-03
		END_DATA
	END_SCAN  15
	BEGIN_SCAN  16
		TASK_NAME=MODE_INTERVAL
		PROGRAM=BeamAdjust 1.2
		MEAS_DATE=07-Oct-2010 14:14:26
		LINAC=A4
		MODALITY=X
		INPLANE_AXIS_DIR=GUN_TARGET
		CROSSPLANE_AXIS_DIR=LEFT_RIGHT
		DEPTH_AXIS_DIR=UP_DOWN
		ENERGY=6.00
		SSD=950.00
		WEDGE=None
		FIELD_INPLANE=100.00
		FIELD_CROSSPLANE=100.00
		FIELD_TYPE=RECTANGULAR
		GANTRY=0.00
		GANTRY_UPRIGHT_POSITION=0
		GANTRY_ROTATION=CW
		COLL_ANGLE=90.00
		COLL_OFFSET_INPLANE=0.00
		COLL_OFFSET_CROSSPLANE=0.00
		SCAN_DEVICE=STARCHECK
		ELECTROMETER=2D_ARRAY_INTERFACE
		DETECTOR=STARCHECK
		SCAN_CURVETYPE=INPLANE_PROFILE
		SCAN_DEPTH=0.00
		SCAN_OFFAXIS_CROSSPLANE=0.00
		SCAN_ANGLE=0.00
		SCAN_DIAGONAL=SECOND_DIAGONAL
		MEAS_PRESET=TIME_PRESET
		MEAS_TIME=10.000
		MEAS_UNIT=GY
		PRESSURE=1013.25
		TEMPERATURE=20.00
		NORM_TEMPERATURE=20.00
		CORRECTION_FACTOR=1.0000
		CORRECTIONS=AIR_DENSITY_CORR;
		BEGIN_DATA
			-172.40		2.8577E-03
			-169.40		3.2374E-03
			-166.40		2.8891E-03
			-163.40		2.8709E-03
			-160.40		3.4573E-03
			-157.40		3.6732E-03
			-154.40		4.1219E-03
			-151.40		4.4058E-03
			-148.40		4.5738E-03
			-145.40		4.7116E-03
			-142.40		5.3744E-03
			-139.40		5.5380E-03
			-136.40		5.9956E-03
			-133.40		6.7563E-03
			-130.40		7.3170E-03
			-127.40		8.5871E-03
			-124.40		8.7502E-03
			-121.40		9.3362E-03
			-118.40		9.7807E-03
			-115.40		10.491E-03
			-112.40		11.193E-03
			-109.40		12.785E-03
			-106.40		13.821E-03
			-103.40		15.166E-03
			-100.40		17.101E-03
			-97.40		18.659E-03
			-94.40		20.321E-03
			-91.40		22.893E-03
			-88.40		25.067E-03
			-85.40		29.032E-03
			-82.40		33.522E-03
			-79.40		41.786E-03
			-76.40		59.001E-03
			-73.40		117.11E-03
			-70.40		281.46E-03
			-67.40		461.11E-03
			-64.40		572.84E-03
			-61.40		615.96E-03
			-58.40		635.61E-03
			-55.40		643.67E-03
			-52.40		653.34E-03
			-49.40		657.19E-03
			-46.40		659.86E-03
			-43.40		662.91E-03
			-40.40		663.94E-03
			-37.40		666.97E-03
			-34.40		666.26E-03
			-31.40		666.77E-03
			-28.40		668.58E-03
			-25.40		667.26E-03
			-22.40		665.75E-03
			-19.40		669.50E-03
			-16.40		671.00E-03
			-13.40		672.81E-03
			0.00		668.76E-03
			13.40		669.78E-03
			16.40		666.98E-03
			19.40		664.12E-03
			22.40		662.11E-03
			25.40		661.25E-03
			28.40		659.96E-03
			31.40		657.77E-03
			34.40		654.54E-03
			37.40		653.46E-03
			40.40		651.67E-03
			43.40		648.94E-03
			46.40		646.01E-03
			49.40		640.27E-03
			52.40		628.85E-03
			55.40		613.01E-03
			58.40		582.36E-03
			61.40		495.80E-03
			64.40		344.62E-03
			67.40		173.74E-03
			70.40		78.416E-03
			73.40		48.764E-03
			76.40		37.557E-03
			79.40		31.605E-03
			82.40		28.288E-03
			85.40		25.063E-03
			88.40		22.376E-03
			91.40		20.297E-03
			94.40		18.240E-03
			97.40		16.782E-03
			100.40		14.416E-03
			103.40		13.358E-03
			106.40		13.098E-03
			109.40		11.326E-03
			112.40		10.376E-03
			115.40		9.5664E-03
			118.40		8.7205E-03
			121.40		7.8526E-03
			124.40		7.5112E-03
			127.40		6.9062E-03
			130.40		7.1218E-03
			133.40		6.1253E-03
			136.40		5.6525E-03
			139.40		6.0254E-03
			142.40		5.4308E-03
			145.40		5.3323E-03
			148.40		4.7043E-03
			151.40		3.9936E-03
			154.40		4.0244E-03
			157.40		3.8593E-03
			160.40		3.4759E-03
			163.40		3.7923E-03
			166.40		3.4340E-03
			169.40		2.7003E-03
			172.40		2.3238E-03
		END_DATA
	END_SCAN  16
END_SCAN_DATA
