BEGIN_SCAN_DATA
	FORMAT=CC-Export V1.9                  
	FILE_CREATION_DATE=07-Oct-2010 14:13:56
	LAST_MODIFIED=07-Oct-2010 14:13:56
	BEGIN_SCAN  1
		TASK_NAME=MODE_INTERVAL
		PROGRAM=BeamAdjust 1.2
		MEAS_DATE=07-Oct-2010 14:13:56
		LINAC=A4
		MODALITY=X
		INPLANE_AXIS_DIR=TARGET_GUN
		CROSSPLANE_AXIS_DIR=LEFT_RIGHT
		DEPTH_AXIS_DIR=UP_DOWN
		ENERGY=6.00
		SSD=950.00
		WEDGE=None
		FIELD_INPLANE=100.00
		FIELD_CROSSPLANE=100.00
		FIELD_TYPE=RECTANGULAR
		GANTRY=0.00
		GANTRY_UPRIGHT_POSITION=0
		GANTRY_ROTATION=CW
		COLL_ANGLE=90.00
		COLL_OFFSET_INPLANE=0.00
		COLL_OFFSET_CROSSPLANE=0.00
		SCAN_DEVICE=STARCHECK
		ELECTROMETER=2D_ARRAY_INTERFACE
		DETECTOR=STARCHECK
		SCAN_CURVETYPE=CROSSPLANE_PROFILE
		SCAN_DEPTH=0.00
		SCAN_OFFAXIS_INPLANE=-130.00
		SCAN_ANGLE=0.00
		SCAN_DIAGONAL=NOT_DIAGONAL
		MEAS_PRESET=TIME_PRESET
		MEAS_TIME=10.000
		MEAS_UNIT=GY
		PRESSURE=1013.25
		TEMPERATURE=20.00
		NORM_TEMPERATURE=20.00
		CORRECTION_FACTOR=1.0000
		CORRECTIONS=AIR_DENSITY_CORR;
		BEGIN_DATA
			-130.00		2.8446E-03
			-80.00		4.4779E-03
			-40.00		7.5037E-03
			40.00		7.2495E-03
			80.00		4.1560E-03
			130.00		2.0915E-03
		END_DATA
	END_SCAN  1
	BEGIN_SCAN  2
		TASK_NAME=MODE_INTERVAL
		PROGRAM=BeamAdjust 1.2
		MEAS_DATE=07-Oct-2010 14:13:56
		LINAC=A4
		MODALITY=X
		INPLANE_AXIS_DIR=TARGET_GUN
		CROSSPLANE_AXIS_DIR=LEFT_RIGHT
		DEPTH_AXIS_DIR=UP_DOWN
		ENERGY=6.00
		SSD=950.00
		WEDGE=None
		FIELD_INPLANE=100.00
		FIELD_CROSSPLANE=100.00
		FIELD_TYPE=RECTANGULAR
		GANTRY=0.00
		GANTRY_UPRIGHT_POSITION=0
		GANTRY_ROTATION=CW
		COLL_ANGLE=90.00
		COLL_OFFSET_INPLANE=0.00
		COLL_OFFSET_CROSSPLANE=0.00
		SCAN_DEVICE=STARCHECK
		ELECTROMETER=2D_ARRAY_INTERFACE
		DETECTOR=STARCHECK
		SCAN_CURVETYPE=CROSSPLANE_PROFILE
		SCAN_DEPTH=0.00
		SCAN_OFFAXIS_INPLANE=-100.00
		SCAN_ANGLE=0.00
		SCAN_DIAGONAL=NOT_DIAGONAL
		MEAS_PRESET=TIME_PRESET
		MEAS_TIME=10.000
		MEAS_UNIT=GY
		PRESSURE=1013.25
		TEMPERATURE=20.00
		NORM_TEMPERATURE=20.00
		CORRECTION_FACTOR=1.0000
		CORRECTIONS=AIR_DENSITY_CORR;
		BEGIN_DATA
			-60.00		11.227E-03
			-30.00		15.657E-03
			30.00		16.235E-03
			60.00		10.698E-03
		END_DATA
	END_SCAN  2
	BEGIN_SCAN  3
		TASK_NAME=MODE_INTERVAL
		PROGRAM=BeamAdjust 1.2
		MEAS_DATE=07-Oct-2010 14:13:56
		LINAC=A4
		MODALITY=X
		INPLANE_AXIS_DIR=TARGET_GUN
		CROSSPLANE_AXIS_DIR=LEFT_RIGHT
		DEPTH_AXIS_DIR=UP_DOWN
		ENERGY=6.00
		SSD=950.00
		WEDGE=None
		FIELD_INPLANE=100.00
		FIELD_CROSSPLANE=100.00
		FIELD_TYPE=RECTANGULAR
		GANTRY=0.00
		GANTRY_UPRIGHT_POSITION=0
		GANTRY_ROTATION=CW
		COLL_ANGLE=90.00
		COLL_OFFSET_INPLANE=0.00
		COLL_OFFSET_CROSSPLANE=0.00
		SCAN_DEVICE=STARCHECK
		ELECTROMETER=2D_ARRAY_INTERFACE
		DETECTOR=STARCHECK
		SCAN_CURVETYPE=CROSSPLANE_PROFILE
		SCAN_DEPTH=0.00
		SCAN_OFFAXIS_INPLANE=-50.00
		SCAN_ANGLE=0.00
		SCAN_DIAGONAL=NOT_DIAGONAL
		MEAS_PRESET=TIME_PRESET
		MEAS_TIME=10.000
		MEAS_UNIT=GY
		PRESSURE=1013.25
		TEMPERATURE=20.00
		NORM_TEMPERATURE=20.00
		CORRECTION_FACTOR=1.0000
		CORRECTIONS=AIR_DENSITY_CORR;
		BEGIN_DATA
			-30.00		598.55E-03
			-15.00		583.62E-03
			15.00		599.90E-03
			30.00		599.47E-03
		END_DATA
	END_SCAN  3
	BEGIN_SCAN  4
		TASK_NAME=MODE_INTERVAL
		PROGRAM=BeamAdjust 1.2
		MEAS_DATE=07-Oct-2010 14:13:56
		LINAC=A4
		MODALITY=X
		INPLANE_AXIS_DIR=TARGET_GUN
		CROSSPLANE_AXIS_DIR=LEFT_RIGHT
		DEPTH_AXIS_DIR=UP_DOWN
		ENERGY=6.00
		SSD=950.00
		WEDGE=None
		FIELD_INPLANE=100.00
		FIELD_CROSSPLANE=100.00
		FIELD_TYPE=RECTANGULAR
		GANTRY=0.00
		GANTRY_UPRIGHT_POSITION=0
		GANTRY_ROTATION=CW
		COLL_ANGLE=90.00
		COLL_OFFSET_INPLANE=0.00
		COLL_OFFSET_CROSSPLANE=0.00
		SCAN_DEVICE=STARCHECK
		ELECTROMETER=2D_ARRAY_INTERFACE
		DETECTOR=STARCHECK
		SCAN_CURVETYPE=CROSSPLANE_PROFILE
		SCAN_DEPTH=0.00
		SCAN_OFFAXIS_INPLANE=0.00
		SCAN_ANGLE=0.00
		SCAN_DIAGONAL=NOT_DIAGONAL
		MEAS_PRESET=TIME_PRESET
		MEAS_TIME=10.000
		MEAS_UNIT=GY
		PRESSURE=1013.25
		TEMPERATURE=20.00
		NORM_TEMPERATURE=20.00
		CORRECTION_FACTOR=1.0000
		CORRECTIONS=AIR_DENSITY_CORR;
		BEGIN_DATA
			-126.00		6.2633E-03
			-123.00		7.3173E-03
			-120.00		8.1543E-03
			-117.00		8.7023E-03
			-114.00		9.1831E-03
			-111.00		9.6485E-03
			-108.00		10.151E-03
			-105.00		10.717E-03
			-102.00		11.441E-03
			-99.00		13.087E-03
			-96.00		13.793E-03
			-93.00		15.531E-03
			-90.00		16.875E-03
			-87.00		18.258E-03
			-84.00		20.149E-03
			-81.00		21.722E-03
			-78.00		23.453E-03
			-75.00		26.760E-03
			-72.00		29.679E-03
			-69.00		34.366E-03
			-66.00		39.540E-03
			-63.00		45.537E-03
			-60.00		54.778E-03
			-57.00		72.752E-03
			-54.00		114.18E-03
			-51.00		292.65E-03
			-48.00		555.38E-03
			-45.00		616.93E-03
			-42.00		636.11E-03
			-39.00		647.96E-03
			-36.00		654.08E-03
			-33.00		654.57E-03
			-30.00		656.21E-03
			-27.00		659.38E-03
			-24.00		661.64E-03
			-21.00		661.30E-03
			-18.00		666.72E-03
			-15.00		667.40E-03
			-12.00		666.62E-03
			-9.00		669.72E-03
			-6.00		669.01E-03
			0.00		668.47E-03
			6.00		671.46E-03
			9.00		670.21E-03
			12.00		667.37E-03
			15.00		666.49E-03
			18.00		665.91E-03
			21.00		664.44E-03
			24.00		660.81E-03
			27.00		664.59E-03
			30.00		662.54E-03
			33.00		660.19E-03
			36.00		657.37E-03
			39.00		651.17E-03
			42.00		639.72E-03
			45.00		614.84E-03
			48.00		524.46E-03
			51.00		230.65E-03
			54.00		100.95E-03
			57.00		67.820E-03
			60.00		52.650E-03
			63.00		44.650E-03
			66.00		38.006E-03
			69.00		33.400E-03
			72.00		29.533E-03
			75.00		26.110E-03
			78.00		23.919E-03
			81.00		21.471E-03
			84.00		19.560E-03
			87.00		17.552E-03
			90.00		16.610E-03
			93.00		14.834E-03
			96.00		13.355E-03
			99.00		12.625E-03
			102.00		11.838E-03
			105.00		10.890E-03
			108.00		10.457E-03
			111.00		8.9250E-03
			114.00		8.5152E-03
			117.00		7.9252E-03
			120.00		7.7613E-03
			123.00		6.9471E-03
			126.00		6.9510E-03
		END_DATA
	END_SCAN  4
	BEGIN_SCAN  5
		TASK_NAME=MODE_INTERVAL
		PROGRAM=BeamAdjust 1.2
		MEAS_DATE=07-Oct-2010 14:13:56
		LINAC=A4
		MODALITY=X
		INPLANE_AXIS_DIR=TARGET_GUN
		CROSSPLANE_AXIS_DIR=LEFT_RIGHT
		DEPTH_AXIS_DIR=UP_DOWN
		ENERGY=6.00
		SSD=950.00
		WEDGE=None
		FIELD_INPLANE=100.00
		FIELD_CROSSPLANE=100.00
		FIELD_TYPE=RECTANGULAR
		GANTRY=0.00
		GANTRY_UPRIGHT_POSITION=0
		GANTRY_ROTATION=CW
		COLL_ANGLE=90.00
		COLL_OFFSET_INPLANE=0.00
		COLL_OFFSET_CROSSPLANE=0.00
		SCAN_DEVICE=STARCHECK
		ELECTROMETER=2D_ARRAY_INTERFACE
		DETECTOR=STARCHECK
		SCAN_CURVETYPE=CROSSPLANE_PROFILE
		SCAN_DEPTH=0.00
		SCAN_OFFAXIS_INPLANE=50.00
		SCAN_ANGLE=0.00
		SCAN_DIAGONAL=NOT_DIAGONAL
		MEAS_PRESET=TIME_PRESET
		MEAS_TIME=10.000
		MEAS_UNIT=GY
		PRESSURE=1013.25
		TEMPERATURE=20.00
		NORM_TEMPERATURE=20.00
		CORRECTION_FACTOR=1.0000
		CORRECTIONS=AIR_DENSITY_CORR;
		BEGIN_DATA
			-30.00		107.38E-03
			-15.00		110.07E-03
			15.00		101.89E-03
			30.00		103.75E-03
		END_DATA
	END_SCAN  5
	BEGIN_SCAN  6
		TASK_NAME=MODE_INTERVAL
		PROGRAM=BeamAdjust 1.2
		MEAS_DATE=07-Oct-2010 14:13:56
		LINAC=A4
		MODALITY=X
		INPLANE_AXIS_DIR=TARGET_GUN
		CROSSPLANE_AXIS_DIR=LEFT_RIGHT
		DEPTH_AXIS_DIR=UP_DOWN
		ENERGY=6.00
		SSD=950.00
		WEDGE=None
		FIELD_INPLANE=100.00
		FIELD_CROSSPLANE=100.00
		FIELD_TYPE=RECTANGULAR
		GANTRY=0.00
		GANTRY_UPRIGHT_POSITION=0
		GANTRY_ROTATION=CW
		COLL_ANGLE=90.00
		COLL_OFFSET_INPLANE=0.00
		COLL_OFFSET_CROSSPLANE=0.00
		SCAN_DEVICE=STARCHECK
		ELECTROMETER=2D_ARRAY_INTERFACE
		DETECTOR=STARCHECK
		SCAN_CURVETYPE=CROSSPLANE_PROFILE
		SCAN_DEPTH=0.00
		SCAN_OFFAXIS_INPLANE=100.00
		SCAN_ANGLE=0.00
		SCAN_DIAGONAL=NOT_DIAGONAL
		MEAS_PRESET=TIME_PRESET
		MEAS_TIME=10.000
		MEAS_UNIT=GY
		PRESSURE=1013.25
		TEMPERATURE=20.00
		NORM_TEMPERATURE=20.00
		CORRECTION_FACTOR=1.0000
		CORRECTIONS=AIR_DENSITY_CORR;
		BEGIN_DATA
			-60.00		9.5080E-03
			-30.00		14.599E-03
			30.00		13.611E-03
			60.00		8.3682E-03
		END_DATA
	END_SCAN  6
	BEGIN_SCAN  7
		TASK_NAME=MODE_INTERVAL
		PROGRAM=BeamAdjust 1.2
		MEAS_DATE=07-Oct-2010 14:13:56
		LINAC=A4
		MODALITY=X
		INPLANE_AXIS_DIR=TARGET_GUN
		CROSSPLANE_AXIS_DIR=LEFT_RIGHT
		DEPTH_AXIS_DIR=UP_DOWN
		ENERGY=6.00
		SSD=950.00
		WEDGE=None
		FIELD_INPLANE=100.00
		FIELD_CROSSPLANE=100.00
		FIELD_TYPE=RECTANGULAR
		GANTRY=0.00
		GANTRY_UPRIGHT_POSITION=0
		GANTRY_ROTATION=CW
		COLL_ANGLE=90.00
		COLL_OFFSET_INPLANE=0.00
		COLL_OFFSET_CROSSPLANE=0.00
		SCAN_DEVICE=STARCHECK
		ELECTROMETER=2D_ARRAY_INTERFACE
		DETECTOR=STARCHECK
		SCAN_CURVETYPE=CROSSPLANE_PROFILE
		SCAN_DEPTH=0.00
		SCAN_OFFAXIS_INPLANE=130.00
		SCAN_ANGLE=0.00
		SCAN_DIAGONAL=NOT_DIAGONAL
		MEAS_PRESET=TIME_PRESET
		MEAS_TIME=10.000
		MEAS_UNIT=GY
		PRESSURE=1013.25
		TEMPERATURE=20.00
		NORM_TEMPERATURE=20.00
		CORRECTION_FACTOR=1.0000
		CORRECTIONS=AIR_DENSITY_CORR;
		BEGIN_DATA
			-130.00		1.8373E-03
			-80.00		3.7626E-03
			-40.00		6.8601E-03
			40.00		7.0470E-03
			80.00		3.9212E-03
			130.00		2.3683E-03
		END_DATA
	END_SCAN  7
	BEGIN_SCAN  8
		TASK_NAME=MODE_INTERVAL
		PROGRAM=BeamAdjust 1.2
		MEAS_DATE=07-Oct-2010 14:13:56
		LINAC=A4
		MODALITY=X
		INPLANE_AXIS_DIR=TARGET_GUN
		CROSSPLANE_AXIS_DIR=LEFT_RIGHT
		DEPTH_AXIS_DIR=UP_DOWN
		ENERGY=6.00
		SSD=950.00
		WEDGE=None
		FIELD_INPLANE=100.00
		FIELD_CROSSPLANE=100.00
		FIELD_TYPE=RECTANGULAR
		GANTRY=0.00
		GANTRY_UPRIGHT_POSITION=0
		GANTRY_ROTATION=CW
		COLL_ANGLE=90.00
		COLL_OFFSET_INPLANE=0.00
		COLL_OFFSET_CROSSPLANE=0.00
		SCAN_DEVICE=STARCHECK
		ELECTROMETER=2D_ARRAY_INTERFACE
		DETECTOR=STARCHECK
		SCAN_CURVETYPE=INPLANE_PROFILE
		SCAN_DEPTH=0.00
		SCAN_OFFAXIS_CROSSPLANE=-130.00
		SCAN_ANGLE=0.00
		SCAN_DIAGONAL=NOT_DIAGONAL
		MEAS_PRESET=TIME_PRESET
		MEAS_TIME=10.000
		MEAS_UNIT=GY
		PRESSURE=1013.25
		TEMPERATURE=20.00
		NORM_TEMPERATURE=20.00
		CORRECTION_FACTOR=1.0000
		CORRECTIONS=AIR_DENSITY_CORR;
		BEGIN_DATA
			-130.00		2.8446E-03
			-125.00		2.9474E-03
			-120.00		3.1719E-03
			-115.00		3.3273E-03
			-110.00		3.2543E-03
			-105.00		3.6306E-03
			-100.00		4.0123E-03
			-95.00		4.7898E-03
			-90.00		4.9590E-03
			-85.00		4.7283E-03
			-80.00		4.6110E-03
			-75.00		5.0220E-03
			-70.00		4.9119E-03
			-65.00		5.1544E-03
			-60.00		5.1764E-03
			-55.00		6.0846E-03
			-50.00		4.2938E-03
			-45.00		4.9417E-03
			-40.00		5.3184E-03
			-35.00		5.9025E-03
			-30.00		5.4145E-03
			-25.00		4.9102E-03
			-20.00		5.1136E-03
			-15.00		5.1092E-03
			-10.00		5.5886E-03
			-5.00		6.6948E-03
			0.00		5.8612E-03
			5.00		6.3436E-03
			10.00		5.4981E-03
			15.00		5.4291E-03
			20.00		5.6202E-03
			25.00		5.1774E-03
			30.00		6.0111E-03
			35.00		5.5046E-03
			40.00		4.9691E-03
			45.00		4.6001E-03
			50.00		4.6978E-03
			55.00		4.3323E-03
			60.00		4.5345E-03
			65.00		3.9631E-03
			70.00		3.7992E-03
			75.00		3.7770E-03
			80.00		3.5091E-03
			85.00		3.4436E-03
			90.00		3.2114E-03
			95.00		3.2323E-03
			100.00		3.4283E-03
			105.00		2.3679E-03
			110.00		2.5381E-03
			115.00		2.2296E-03
			120.00		2.4383E-03
			125.00		2.3568E-03
			130.00		1.8373E-03
		END_DATA
	END_SCAN  8
	BEGIN_SCAN  9
		TASK_NAME=MODE_INTERVAL
		PROGRAM=BeamAdjust 1.2
		MEAS_DATE=07-Oct-2010 14:13:56
		LINAC=A4
		MODALITY=X
		INPLANE_AXIS_DIR=TARGET_GUN
		CROSSPLANE_AXIS_DIR=LEFT_RIGHT
		DEPTH_AXIS_DIR=UP_DOWN
		ENERGY=6.00
		SSD=950.00
		WEDGE=None
		FIELD_INPLANE=100.00
		FIELD_CROSSPLANE=100.00
		FIELD_TYPE=RECTANGULAR
		GANTRY=0.00
		GANTRY_UPRIGHT_POSITION=0
		GANTRY_ROTATION=CW
		COLL_ANGLE=90.00
		COLL_OFFSET_INPLANE=0.00
		COLL_OFFSET_CROSSPLANE=0.00
		SCAN_DEVICE=STARCHECK
		ELECTROMETER=2D_ARRAY_INTERFACE
		DETECTOR=STARCHECK
		SCAN_CURVETYPE=INPLANE_PROFILE
		SCAN_DEPTH=0.00
		SCAN_OFFAXIS_CROSSPLANE=-100.00
		SCAN_ANGLE=0.00
		SCAN_DIAGONAL=NOT_DIAGONAL
		MEAS_PRESET=TIME_PRESET
		MEAS_TIME=10.000
		MEAS_UNIT=GY
		PRESSURE=1013.25
		TEMPERATURE=20.00
		NORM_TEMPERATURE=20.00
		CORRECTION_FACTOR=1.0000
		CORRECTIONS=AIR_DENSITY_CORR;
		BEGIN_DATA
			-60.00		8.6245E-03
			-30.00		10.632E-03
			30.00		10.167E-03
			60.00		7.7057E-03
		END_DATA
	END_SCAN  9
	BEGIN_SCAN  10
		TASK_NAME=MODE_INTERVAL
		PROGRAM=BeamAdjust 1.2
		MEAS_DATE=07-Oct-2010 14:13:56
		LINAC=A4
		MODALITY=X
		INPLANE_AXIS_DIR=TARGET_GUN
		CROSSPLANE_AXIS_DIR=LEFT_RIGHT
		DEPTH_AXIS_DIR=UP_DOWN
		ENERGY=6.00
		SSD=950.00
		WEDGE=None
		FIELD_INPLANE=100.00
		FIELD_CROSSPLANE=100.00
		FIELD_TYPE=RECTANGULAR
		GANTRY=0.00
		GANTRY_UPRIGHT_POSITION=0
		GANTRY_ROTATION=CW
		COLL_ANGLE=90.00
		COLL_OFFSET_INPLANE=0.00
		COLL_OFFSET_CROSSPLANE=0.00
		SCAN_DEVICE=STARCHECK
		ELECTROMETER=2D_ARRAY_INTERFACE
		DETECTOR=STARCHECK
		SCAN_CURVETYPE=INPLANE_PROFILE
		SCAN_DEPTH=0.00
		SCAN_OFFAXIS_CROSSPLANE=-50.00
		SCAN_ANGLE=0.00
		SCAN_DIAGONAL=NOT_DIAGONAL
		MEAS_PRESET=TIME_PRESET
		MEAS_TIME=10.000
		MEAS_UNIT=GY
		PRESSURE=1013.25
		TEMPERATURE=20.00
		NORM_TEMPERATURE=20.00
		CORRECTION_FACTOR=1.0000
		CORRECTIONS=AIR_DENSITY_CORR;
		BEGIN_DATA
			-30.00		399.71E-03
			-15.00		395.65E-03
			15.00		384.45E-03
			30.00		371.93E-03
		END_DATA
	END_SCAN  10
	BEGIN_SCAN  11
		TASK_NAME=MODE_INTERVAL
		PROGRAM=BeamAdjust 1.2
		MEAS_DATE=07-Oct-2010 14:13:56
		LINAC=A4
		MODALITY=X
		INPLANE_AXIS_DIR=TARGET_GUN
		CROSSPLANE_AXIS_DIR=LEFT_RIGHT
		DEPTH_AXIS_DIR=UP_DOWN
		ENERGY=6.00
		SSD=950.00
		WEDGE=None
		FIELD_INPLANE=100.00
		FIELD_CROSSPLANE=100.00
		FIELD_TYPE=RECTANGULAR
		GANTRY=0.00
		GANTRY_UPRIGHT_POSITION=0
		GANTRY_ROTATION=CW
		COLL_ANGLE=90.00
		COLL_OFFSET_INPLANE=0.00
		COLL_OFFSET_CROSSPLANE=0.00
		SCAN_DEVICE=STARCHECK
		ELECTROMETER=2D_ARRAY_INTERFACE
		DETECTOR=STARCHECK
		SCAN_CURVETYPE=INPLANE_PROFILE
		SCAN_DEPTH=0.00
		SCAN_OFFAXIS_CROSSPLANE=0.00
		SCAN_ANGLE=0.00
		SCAN_DIAGONAL=NOT_DIAGONAL
		MEAS_PRESET=TIME_PRESET
		MEAS_TIME=10.000
		MEAS_UNIT=GY
		PRESSURE=1013.25
		TEMPERATURE=20.00
		NORM_TEMPERATURE=20.00
		CORRECTION_FACTOR=1.0000
		CORRECTIONS=AIR_DENSITY_CORR;
		BEGIN_DATA
			-126.00		9.6566E-03
			-123.00		9.6712E-03
			-120.00		11.201E-03
			-117.00		12.279E-03
			-114.00		12.655E-03
			-111.00		13.418E-03
			-108.00		14.515E-03
			-105.00		15.738E-03
			-102.00		17.507E-03
			-99.00		18.180E-03
			-96.00		20.233E-03
			-93.00		22.212E-03
			-90.00		23.714E-03
			-87.00		25.727E-03
			-84.00		28.041E-03
			-81.00		30.642E-03
			-78.00		33.696E-03
			-75.00		36.980E-03
			-72.00		41.206E-03
			-69.00		46.119E-03
			-66.00		53.365E-03
			-63.00		64.106E-03
			-60.00		84.700E-03
			-57.00		142.65E-03
			-54.00		333.18E-03
			-51.00		567.38E-03
			-48.00		627.45E-03
			-45.00		645.45E-03
			-42.00		653.82E-03
			-39.00		658.66E-03
			-36.00		662.19E-03
			-33.00		663.91E-03
			-30.00		666.39E-03
			-27.00		666.69E-03
			-24.00		666.13E-03
			-21.00		666.61E-03
			-18.00		673.42E-03
			-15.00		670.07E-03
			-12.00		670.12E-03
			-9.00		669.12E-03
			-6.00		666.89E-03
			0.00		668.47E-03
			6.00		672.71E-03
			9.00		670.22E-03
			12.00		667.78E-03
			15.00		666.17E-03
			18.00		662.74E-03
			21.00		662.38E-03
			24.00		658.61E-03
			27.00		659.16E-03
			30.00		653.79E-03
			33.00		649.94E-03
			36.00		644.04E-03
			39.00		625.94E-03
			42.00		587.55E-03
			45.00		408.71E-03
			48.00		173.51E-03
			51.00		94.832E-03
			54.00		67.331E-03
			57.00		55.151E-03
			60.00		47.847E-03
			63.00		42.033E-03
			66.00		37.952E-03
			69.00		34.232E-03
			72.00		31.273E-03
			75.00		28.364E-03
			78.00		25.417E-03
			81.00		23.530E-03
			84.00		21.872E-03
			87.00		20.229E-03
			90.00		19.037E-03
			93.00		17.439E-03
			96.00		16.235E-03
			99.00		14.745E-03
			102.00		13.211E-03
			105.00		12.361E-03
			108.00		12.351E-03
			111.00		11.331E-03
			114.00		10.841E-03
			117.00		9.5533E-03
			120.00		9.2463E-03
			123.00		8.3115E-03
			126.00		7.5641E-03
		END_DATA
	END_SCAN  11
	BEGIN_SCAN  12
		TASK_NAME=MODE_INTERVAL
		PROGRAM=BeamAdjust 1.2
		MEAS_DATE=07-Oct-2010 14:13:56
		LINAC=A4
		MODALITY=X
		INPLANE_AXIS_DIR=TARGET_GUN
		CROSSPLANE_AXIS_DIR=LEFT_RIGHT
		DEPTH_AXIS_DIR=UP_DOWN
		ENERGY=6.00
		SSD=950.00
		WEDGE=None
		FIELD_INPLANE=100.00
		FIELD_CROSSPLANE=100.00
		FIELD_TYPE=RECTANGULAR
		GANTRY=0.00
		GANTRY_UPRIGHT_POSITION=0
		GANTRY_ROTATION=CW
		COLL_ANGLE=90.00
		COLL_OFFSET_INPLANE=0.00
		COLL_OFFSET_CROSSPLANE=0.00
		SCAN_DEVICE=STARCHECK
		ELECTROMETER=2D_ARRAY_INTERFACE
		DETECTOR=STARCHECK
		SCAN_CURVETYPE=INPLANE_PROFILE
		SCAN_DEPTH=0.00
		SCAN_OFFAXIS_CROSSPLANE=50.00
		SCAN_ANGLE=0.00
		SCAN_DIAGONAL=NOT_DIAGONAL
		MEAS_PRESET=TIME_PRESET
		MEAS_TIME=10.000
		MEAS_UNIT=GY
		PRESSURE=1013.25
		TEMPERATURE=20.00
		NORM_TEMPERATURE=20.00
		CORRECTION_FACTOR=1.0000
		CORRECTIONS=AIR_DENSITY_CORR;
		BEGIN_DATA
			-30.00		326.66E-03
			-15.00		335.11E-03
			15.00		341.25E-03
			30.00		340.45E-03
		END_DATA
	END_SCAN  12
	BEGIN_SCAN  13
		TASK_NAME=MODE_INTERVAL
		PROGRAM=BeamAdjust 1.2
		MEAS_DATE=07-Oct-2010 14:13:56
		LINAC=A4
		MODALITY=X
		INPLANE_AXIS_DIR=TARGET_GUN
		CROSSPLANE_AXIS_DIR=LEFT_RIGHT
		DEPTH_AXIS_DIR=UP_DOWN
		ENERGY=6.00
		SSD=950.00
		WEDGE=None
		FIELD_INPLANE=100.00
		FIELD_CROSSPLANE=100.00
		FIELD_TYPE=RECTANGULAR
		GANTRY=0.00
		GANTRY_UPRIGHT_POSITION=0
		GANTRY_ROTATION=CW
		COLL_ANGLE=90.00
		COLL_OFFSET_INPLANE=0.00
		COLL_OFFSET_CROSSPLANE=0.00
		SCAN_DEVICE=STARCHECK
		ELECTROMETER=2D_ARRAY_INTERFACE
		DETECTOR=STARCHECK
		SCAN_CURVETYPE=INPLANE_PROFILE
		SCAN_DEPTH=0.00
		SCAN_OFFAXIS_CROSSPLANE=100.00
		SCAN_ANGLE=0.00
		SCAN_DIAGONAL=NOT_DIAGONAL
		MEAS_PRESET=TIME_PRESET
		MEAS_TIME=10.000
		MEAS_UNIT=GY
		PRESSURE=1013.25
		TEMPERATURE=20.00
		NORM_TEMPERATURE=20.00
		CORRECTION_FACTOR=1.0000
		CORRECTIONS=AIR_DENSITY_CORR;
		BEGIN_DATA
			-60.00		8.2238E-03
			-30.00		10.457E-03
			30.00		10.215E-03
			60.00		7.0677E-03
		END_DATA
	END_SCAN  13
	BEGIN_SCAN  14
		TASK_NAME=MODE_INTERVAL
		PROGRAM=BeamAdjust 1.2
		MEAS_DATE=07-Oct-2010 14:13:56
		LINAC=A4
		MODALITY=X
		INPLANE_AXIS_DIR=TARGET_GUN
		CROSSPLANE_AXIS_DIR=LEFT_RIGHT
		DEPTH_AXIS_DIR=UP_DOWN
		ENERGY=6.00
		SSD=950.00
		WEDGE=None
		FIELD_INPLANE=100.00
		FIELD_CROSSPLANE=100.00
		FIELD_TYPE=RECTANGULAR
		GANTRY=0.00
		GANTRY_UPRIGHT_POSITION=0
		GANTRY_ROTATION=CW
		COLL_ANGLE=90.00
		COLL_OFFSET_INPLANE=0.00
		COLL_OFFSET_CROSSPLANE=0.00
		SCAN_DEVICE=STARCHECK
		ELECTROMETER=2D_ARRAY_INTERFACE
		DETECTOR=STARCHECK
		SCAN_CURVETYPE=INPLANE_PROFILE
		SCAN_DEPTH=0.00
		SCAN_OFFAXIS_CROSSPLANE=130.00
		SCAN_ANGLE=0.00
		SCAN_DIAGONAL=NOT_DIAGONAL
		MEAS_PRESET=TIME_PRESET
		MEAS_TIME=10.000
		MEAS_UNIT=GY
		PRESSURE=1013.25
		TEMPERATURE=20.00
		NORM_TEMPERATURE=20.00
		CORRECTION_FACTOR=1.0000
		CORRECTIONS=AIR_DENSITY_CORR;
		BEGIN_DATA
			-130.00		2.0915E-03
			-125.00		2.5686E-03
			-120.00		2.4033E-03
			-115.00		2.9998E-03
			-110.00		2.7626E-03
			-105.00		2.8459E-03
			-100.00		2.8857E-03
			-95.00		3.2602E-03
			-90.00		2.8109E-03
			-85.00		4.1645E-03
			-80.00		4.0191E-03
			-75.00		3.8568E-03
			-70.00		3.9558E-03
			-65.00		3.8123E-03
			-60.00		4.4635E-03
			-55.00		4.2602E-03
			-50.00		4.3063E-03
			-45.00		5.0603E-03
			-40.00		5.3382E-03
			-35.00		5.2655E-03
			-30.00		5.3379E-03
			-25.00		5.5443E-03
			-20.00		5.3502E-03
			-15.00		5.3930E-03
			-10.00		4.9557E-03
			-5.00		6.0981E-03
			0.00		5.9406E-03
			5.00		5.5494E-03
			10.00		5.7223E-03
			15.00		5.2500E-03
			20.00		5.3927E-03
			25.00		5.4065E-03
			30.00		4.8024E-03
			35.00		4.9992E-03
			40.00		5.5077E-03
			45.00		5.6587E-03
			50.00		4.8162E-03
			55.00		5.0510E-03
			60.00		4.5736E-03
			65.00		3.9639E-03
			70.00		3.9993E-03
			75.00		4.0785E-03
			80.00		3.7566E-03
			85.00		3.4469E-03
			90.00		3.4504E-03
			95.00		3.4350E-03
			100.00		3.6551E-03
			105.00		2.6099E-03
			110.00		2.6265E-03
			115.00		2.9627E-03
			120.00		2.5073E-03
			125.00		2.0530E-03
			130.00		2.3683E-03
		END_DATA
	END_SCAN  14
	BEGIN_SCAN  15
		TASK_NAME=MODE_INTERVAL
		PROGRAM=BeamAdjust 1.2
		MEAS_DATE=07-Oct-2010 14:13:56
		LINAC=A4
		MODALITY=X
		INPLANE_AXIS_DIR=TARGET_GUN
		CROSSPLANE_AXIS_DIR=LEFT_RIGHT
		DEPTH_AXIS_DIR=UP_DOWN
		ENERGY=6.00
		SSD=950.00
		WEDGE=None
		FIELD_INPLANE=100.00
		FIELD_CROSSPLANE=100.00
		FIELD_TYPE=RECTANGULAR
		GANTRY=0.00
		GANTRY_UPRIGHT_POSITION=0
		GANTRY_ROTATION=CW
		COLL_ANGLE=90.00
		COLL_OFFSET_INPLANE=0.00
		COLL_OFFSET_CROSSPLANE=0.00
		SCAN_DEVICE=STARCHECK
		ELECTROMETER=2D_ARRAY_INTERFACE
		DETECTOR=STARCHECK
		SCAN_CURVETYPE=INPLANE_PROFILE
		SCAN_DEPTH=0.00
		SCAN_OFFAXIS_CROSSPLANE=0.00
		SCAN_ANGLE=0.00
		SCAN_DIAGONAL=FIRST_DIAGONAL
		MEAS_PRESET=TIME_PRESET
		MEAS_TIME=10.000
		MEAS_UNIT=GY
		PRESSURE=1013.25
		TEMPERATURE=20.00
		NORM_TEMPERATURE=20.00
		CORRECTION_FACTOR=1.0000
		CORRECTIONS=AIR_DENSITY_CORR;
		BEGIN_DATA
			-172.40		2.8062E-03
			-169.40		3.2632E-03
			-166.40		4.0940E-03
			-163.40		3.7763E-03
			-160.40		3.9714E-03
			-157.40		3.9545E-03
			-154.40		4.0132E-03
			-151.40		4.2363E-03
			-148.40		5.0271E-03
			-145.40		5.5024E-03
			-142.40		5.9580E-03
			-139.40		6.6278E-03
			-136.40		6.4101E-03
			-133.40		7.1590E-03
			-130.40		7.6062E-03
			-127.40		7.8689E-03
			-124.40		8.4829E-03
			-121.40		9.2736E-03
			-118.40		10.538E-03
			-115.40		11.307E-03
			-112.40		12.158E-03
			-109.40		13.339E-03
			-106.40		14.293E-03
			-103.40		14.987E-03
			-100.40		16.804E-03
			-97.40		19.565E-03
			-94.40		21.613E-03
			-91.40		24.177E-03
			-88.40		26.972E-03
			-85.40		30.365E-03
			-82.40		36.578E-03
			-79.40		46.671E-03
			-76.40		71.969E-03
			-73.40		167.95E-03
			-70.40		357.38E-03
			-67.40		514.66E-03
			-64.40		591.16E-03
			-61.40		619.40E-03
			-58.40		633.50E-03
			-55.40		642.20E-03
			-52.40		647.57E-03
			-49.40		651.84E-03
			-46.40		653.72E-03
			-43.40		655.96E-03
			-40.40		658.41E-03
			-37.40		662.78E-03
			-34.40		662.07E-03
			-31.40		663.65E-03
			-28.40		662.03E-03
			-25.40		665.25E-03
			-22.40		665.97E-03
			-19.40		666.74E-03
			-16.40		669.96E-03
			-13.40		670.84E-03
			0.00		668.47E-03
			13.40		670.10E-03
			16.40		666.09E-03
			19.40		666.42E-03
			22.40		665.14E-03
			25.40		663.68E-03
			28.40		662.70E-03
			31.40		659.45E-03
			34.40		655.95E-03
			37.40		658.07E-03
			40.40		654.73E-03
			43.40		651.07E-03
			46.40		647.99E-03
			49.40		640.43E-03
			52.40		631.32E-03
			55.40		609.03E-03
			58.40		565.34E-03
			61.40		458.41E-03
			64.40		297.77E-03
			67.40		144.87E-03
			70.40		69.480E-03
			73.40		46.615E-03
			76.40		36.639E-03
			79.40		31.095E-03
			82.40		27.102E-03
			85.40		23.856E-03
			88.40		22.013E-03
			91.40		20.101E-03
			94.40		17.861E-03
			97.40		15.997E-03
			100.40		14.516E-03
			103.40		13.373E-03
			106.40		12.216E-03
			109.40		11.483E-03
			112.40		10.063E-03
			115.40		9.7816E-03
			118.40		8.7348E-03
			121.40		7.5735E-03
			124.40		7.3214E-03
			127.40		6.8410E-03
			130.40		7.1488E-03
			133.40		6.6506E-03
			136.40		5.2135E-03
			139.40		4.5067E-03
			142.40		4.2715E-03
			145.40		4.2245E-03
			148.40		4.3944E-03
			151.40		3.6445E-03
			154.40		3.6275E-03
			157.40		3.2549E-03
			160.40		2.2783E-03
			163.40		2.4458E-03
			166.40		2.7769E-03
			169.40		2.5878E-03
			172.40		2.5623E-03
		END_DATA
	END_SCAN  15
	BEGIN_SCAN  16
		TASK_NAME=MODE_INTERVAL
		PROGRAM=BeamAdjust 1.2
		MEAS_DATE=07-Oct-2010 14:13:56
		LINAC=A4
		MODALITY=X
		INPLANE_AXIS_DIR=GUN_TARGET
		CROSSPLANE_AXIS_DIR=LEFT_RIGHT
		DEPTH_AXIS_DIR=UP_DOWN
		ENERGY=6.00
		SSD=950.00
		WEDGE=None
		FIELD_INPLANE=100.00
		FIELD_CROSSPLANE=100.00
		FIELD_TYPE=RECTANGULAR
		GANTRY=0.00
		GANTRY_UPRIGHT_POSITION=0
		GANTRY_ROTATION=CW
		COLL_ANGLE=90.00
		COLL_OFFSET_INPLANE=0.00
		COLL_OFFSET_CROSSPLANE=0.00
		SCAN_DEVICE=STARCHECK
		ELECTROMETER=2D_ARRAY_INTERFACE
		DETECTOR=STARCHECK
		SCAN_CURVETYPE=INPLANE_PROFILE
		SCAN_DEPTH=0.00
		SCAN_OFFAXIS_CROSSPLANE=0.00
		SCAN_ANGLE=0.00
		SCAN_DIAGONAL=SECOND_DIAGONAL
		MEAS_PRESET=TIME_PRESET
		MEAS_TIME=10.000
		MEAS_UNIT=GY
		PRESSURE=1013.25
		TEMPERATURE=20.00
		NORM_TEMPERATURE=20.00
		CORRECTION_FACTOR=1.0000
		CORRECTIONS=AIR_DENSITY_CORR;
		BEGIN_DATA
			-172.40		2.5024E-03
			-169.40		2.7080E-03
			-166.40		3.4434E-03
			-163.40		2.9689E-03
			-160.40		3.4127E-03
			-157.40		4.0801E-03
			-154.40		4.5267E-03
			-151.40		4.4829E-03
			-148.40		4.8668E-03
			-145.40		4.5323E-03
			-142.40		5.2399E-03
			-139.40		5.3882E-03
			-136.40		6.1097E-03
			-133.40		7.2283E-03
			-130.40		7.4530E-03
			-127.40		8.0961E-03
			-124.40		9.2483E-03
			-121.40		9.2901E-03
			-118.40		9.9718E-03
			-115.40		10.478E-03
			-112.40		11.327E-03
			-109.40		12.946E-03
			-106.40		14.227E-03
			-103.40		15.473E-03
			-100.40		17.224E-03
			-97.40		18.520E-03
			-94.40		20.123E-03
			-91.40		22.799E-03
			-88.40		25.294E-03
			-85.40		28.744E-03
			-82.40		34.670E-03
			-79.40		42.655E-03
			-76.40		60.398E-03
			-73.40		122.19E-03
			-70.40		288.10E-03
			-67.40		463.44E-03
			-64.40		574.46E-03
			-61.40		616.78E-03
			-58.40		636.28E-03
			-55.40		643.87E-03
			-52.40		653.42E-03
			-49.40		657.04E-03
			-46.40		659.91E-03
			-43.40		663.04E-03
			-40.40		664.79E-03
			-37.40		666.98E-03
			-34.40		666.01E-03
			-31.40		666.27E-03
			-28.40		668.46E-03
			-25.40		667.34E-03
			-22.40		665.74E-03
			-19.40		669.34E-03
			-16.40		670.82E-03
			-13.40		672.45E-03
			0.00		668.47E-03
			13.40		669.08E-03
			16.40		666.42E-03
			19.40		663.74E-03
			22.40		661.36E-03
			25.40		661.28E-03
			28.40		659.69E-03
			31.40		657.25E-03
			34.40		654.07E-03
			37.40		653.11E-03
			40.40		651.33E-03
			43.40		648.55E-03
			46.40		645.55E-03
			49.40		639.47E-03
			52.40		627.51E-03
			55.40		610.39E-03
			58.40		575.11E-03
			61.40		479.92E-03
			64.40		324.79E-03
			67.40		161.20E-03
			70.40		74.568E-03
			73.40		47.823E-03
			76.40		37.085E-03
			79.40		31.437E-03
			82.40		27.929E-03
			85.40		24.837E-03
			88.40		22.345E-03
			91.40		20.232E-03
			94.40		18.198E-03
			97.40		16.649E-03
			100.40		14.343E-03
			103.40		13.359E-03
			106.40		12.806E-03
			109.40		11.611E-03
			112.40		10.423E-03
			115.40		9.5364E-03
			118.40		8.7594E-03
			121.40		7.8586E-03
			124.40		7.5067E-03
			127.40		6.9257E-03
			130.40		7.0665E-03
			133.40		6.0746E-03
			136.40		5.4421E-03
			139.40		5.7831E-03
			142.40		5.3232E-03
			145.40		5.3368E-03
			148.40		5.1613E-03
			151.40		4.0071E-03
			154.40		3.9328E-03
			157.40		3.5543E-03
			160.40		3.3842E-03
			163.40		3.6406E-03
			166.40		3.5883E-03
			169.40		2.8042E-03
			172.40		2.5366E-03
		END_DATA
	END_SCAN  16
END_SCAN_DATA
