BEGIN_SCAN_DATA
	FORMAT=CC-Export V1.9                  
	FILE_CREATION_DATE=07-Oct-2010 14:13:30
	LAST_MODIFIED=07-Oct-2010 14:13:30
	BEGIN_SCAN  1
		TASK_NAME=MODE_INTERVAL
		PROGRAM=BeamAdjust 1.2
		MEAS_DATE=07-Oct-2010 14:13:30
		LINAC=A4
		MODALITY=X
		INPLANE_AXIS_DIR=TARGET_GUN
		CROSSPLANE_AXIS_DIR=LEFT_RIGHT
		DEPTH_AXIS_DIR=UP_DOWN
		ENERGY=6.00
		SSD=950.00
		WEDGE=None
		FIELD_INPLANE=100.00
		FIELD_CROSSPLANE=100.00
		FIELD_TYPE=RECTANGULAR
		GANTRY=0.00
		GANTRY_UPRIGHT_POSITION=0
		GANTRY_ROTATION=CW
		COLL_ANGLE=90.00
		COLL_OFFSET_INPLANE=0.00
		COLL_OFFSET_CROSSPLANE=0.00
		SCAN_DEVICE=STARCHECK
		ELECTROMETER=2D_ARRAY_INTERFACE
		DETECTOR=STARCHECK
		SCAN_CURVETYPE=CROSSPLANE_PROFILE
		SCAN_DEPTH=0.00
		SCAN_OFFAXIS_INPLANE=-130.00
		SCAN_ANGLE=0.00
		SCAN_DIAGONAL=NOT_DIAGONAL
		MEAS_PRESET=TIME_PRESET
		MEAS_TIME=10.000
		MEAS_UNIT=GY
		PRESSURE=1013.25
		TEMPERATURE=20.00
		NORM_TEMPERATURE=20.00
		CORRECTION_FACTOR=1.0000
		CORRECTIONS=AIR_DENSITY_CORR;
		BEGIN_DATA
			-130.00		2.5297E-03
			-80.00		4.6722E-03
			-40.00		7.5861E-03
			40.00		6.8885E-03
			80.00		3.8995E-03
			130.00		1.9539E-03
		END_DATA
	END_SCAN  1
	BEGIN_SCAN  2
		TASK_NAME=MODE_INTERVAL
		PROGRAM=BeamAdjust 1.2
		MEAS_DATE=07-Oct-2010 14:13:30
		LINAC=A4
		MODALITY=X
		INPLANE_AXIS_DIR=TARGET_GUN
		CROSSPLANE_AXIS_DIR=LEFT_RIGHT
		DEPTH_AXIS_DIR=UP_DOWN
		ENERGY=6.00
		SSD=950.00
		WEDGE=None
		FIELD_INPLANE=100.00
		FIELD_CROSSPLANE=100.00
		FIELD_TYPE=RECTANGULAR
		GANTRY=0.00
		GANTRY_UPRIGHT_POSITION=0
		GANTRY_ROTATION=CW
		COLL_ANGLE=90.00
		COLL_OFFSET_INPLANE=0.00
		COLL_OFFSET_CROSSPLANE=0.00
		SCAN_DEVICE=STARCHECK
		ELECTROMETER=2D_ARRAY_INTERFACE
		DETECTOR=STARCHECK
		SCAN_CURVETYPE=CROSSPLANE_PROFILE
		SCAN_DEPTH=0.00
		SCAN_OFFAXIS_INPLANE=-100.00
		SCAN_ANGLE=0.00
		SCAN_DIAGONAL=NOT_DIAGONAL
		MEAS_PRESET=TIME_PRESET
		MEAS_TIME=10.000
		MEAS_UNIT=GY
		PRESSURE=1013.25
		TEMPERATURE=20.00
		NORM_TEMPERATURE=20.00
		CORRECTION_FACTOR=1.0000
		CORRECTIONS=AIR_DENSITY_CORR;
		BEGIN_DATA
			-60.00		11.231E-03
			-30.00		15.947E-03
			30.00		16.092E-03
			60.00		10.729E-03
		END_DATA
	END_SCAN  2
	BEGIN_SCAN  3
		TASK_NAME=MODE_INTERVAL
		PROGRAM=BeamAdjust 1.2
		MEAS_DATE=07-Oct-2010 14:13:30
		LINAC=A4
		MODALITY=X
		INPLANE_AXIS_DIR=TARGET_GUN
		CROSSPLANE_AXIS_DIR=LEFT_RIGHT
		DEPTH_AXIS_DIR=UP_DOWN
		ENERGY=6.00
		SSD=950.00
		WEDGE=None
		FIELD_INPLANE=100.00
		FIELD_CROSSPLANE=100.00
		FIELD_TYPE=RECTANGULAR
		GANTRY=0.00
		GANTRY_UPRIGHT_POSITION=0
		GANTRY_ROTATION=CW
		COLL_ANGLE=90.00
		COLL_OFFSET_INPLANE=0.00
		COLL_OFFSET_CROSSPLANE=0.00
		SCAN_DEVICE=STARCHECK
		ELECTROMETER=2D_ARRAY_INTERFACE
		DETECTOR=STARCHECK
		SCAN_CURVETYPE=CROSSPLANE_PROFILE
		SCAN_DEPTH=0.00
		SCAN_OFFAXIS_INPLANE=-50.00
		SCAN_ANGLE=0.00
		SCAN_DIAGONAL=NOT_DIAGONAL
		MEAS_PRESET=TIME_PRESET
		MEAS_TIME=10.000
		MEAS_UNIT=GY
		PRESSURE=1013.25
		TEMPERATURE=20.00
		NORM_TEMPERATURE=20.00
		CORRECTION_FACTOR=1.0000
		CORRECTIONS=AIR_DENSITY_CORR;
		BEGIN_DATA
			-30.00		607.80E-03
			-15.00		595.97E-03
			15.00		610.25E-03
			30.00		609.20E-03
		END_DATA
	END_SCAN  3
	BEGIN_SCAN  4
		TASK_NAME=MODE_INTERVAL
		PROGRAM=BeamAdjust 1.2
		MEAS_DATE=07-Oct-2010 14:13:30
		LINAC=A4
		MODALITY=X
		INPLANE_AXIS_DIR=TARGET_GUN
		CROSSPLANE_AXIS_DIR=LEFT_RIGHT
		DEPTH_AXIS_DIR=UP_DOWN
		ENERGY=6.00
		SSD=950.00
		WEDGE=None
		FIELD_INPLANE=100.00
		FIELD_CROSSPLANE=100.00
		FIELD_TYPE=RECTANGULAR
		GANTRY=0.00
		GANTRY_UPRIGHT_POSITION=0
		GANTRY_ROTATION=CW
		COLL_ANGLE=90.00
		COLL_OFFSET_INPLANE=0.00
		COLL_OFFSET_CROSSPLANE=0.00
		SCAN_DEVICE=STARCHECK
		ELECTROMETER=2D_ARRAY_INTERFACE
		DETECTOR=STARCHECK
		SCAN_CURVETYPE=CROSSPLANE_PROFILE
		SCAN_DEPTH=0.00
		SCAN_OFFAXIS_INPLANE=0.00
		SCAN_ANGLE=0.00
		SCAN_DIAGONAL=NOT_DIAGONAL
		MEAS_PRESET=TIME_PRESET
		MEAS_TIME=10.000
		MEAS_UNIT=GY
		PRESSURE=1013.25
		TEMPERATURE=20.00
		NORM_TEMPERATURE=20.00
		CORRECTION_FACTOR=1.0000
		CORRECTIONS=AIR_DENSITY_CORR;
		BEGIN_DATA
			-126.00		6.5155E-03
			-123.00		7.3069E-03
			-120.00		7.6296E-03
			-117.00		8.3628E-03
			-114.00		8.9048E-03
			-111.00		9.3838E-03
			-108.00		10.502E-03
			-105.00		10.897E-03
			-102.00		12.296E-03
			-99.00		12.781E-03
			-96.00		13.775E-03
			-93.00		15.178E-03
			-90.00		16.531E-03
			-87.00		18.132E-03
			-84.00		20.535E-03
			-81.00		22.055E-03
			-78.00		23.740E-03
			-75.00		26.970E-03
			-72.00		29.915E-03
			-69.00		34.182E-03
			-66.00		39.094E-03
			-63.00		45.067E-03
			-60.00		55.447E-03
			-57.00		72.813E-03
			-54.00		114.68E-03
			-51.00		292.58E-03
			-48.00		555.72E-03
			-45.00		617.12E-03
			-42.00		636.58E-03
			-39.00		648.82E-03
			-36.00		654.75E-03
			-33.00		655.43E-03
			-30.00		657.23E-03
			-27.00		659.68E-03
			-24.00		661.96E-03
			-21.00		661.46E-03
			-18.00		667.81E-03
			-15.00		667.67E-03
			-12.00		667.38E-03
			-9.00		670.18E-03
			-6.00		669.72E-03
			0.00		669.35E-03
			6.00		672.09E-03
			9.00		670.96E-03
			12.00		668.05E-03
			15.00		667.00E-03
			18.00		666.23E-03
			21.00		664.58E-03
			24.00		661.11E-03
			27.00		665.30E-03
			30.00		663.49E-03
			33.00		661.41E-03
			36.00		657.23E-03
			39.00		651.33E-03
			42.00		640.04E-03
			45.00		615.10E-03
			48.00		525.09E-03
			51.00		231.10E-03
			54.00		101.59E-03
			57.00		68.048E-03
			60.00		52.924E-03
			63.00		43.966E-03
			66.00		37.476E-03
			69.00		32.785E-03
			72.00		29.536E-03
			75.00		27.022E-03
			78.00		23.648E-03
			81.00		21.390E-03
			84.00		19.462E-03
			87.00		17.589E-03
			90.00		16.726E-03
			93.00		14.851E-03
			96.00		13.322E-03
			99.00		12.478E-03
			102.00		11.558E-03
			105.00		10.759E-03
			108.00		10.337E-03
			111.00		9.1293E-03
			114.00		8.6008E-03
			117.00		8.6940E-03
			120.00		7.1490E-03
			123.00		6.9352E-03
			126.00		6.9007E-03
		END_DATA
	END_SCAN  4
	BEGIN_SCAN  5
		TASK_NAME=MODE_INTERVAL
		PROGRAM=BeamAdjust 1.2
		MEAS_DATE=07-Oct-2010 14:13:30
		LINAC=A4
		MODALITY=X
		INPLANE_AXIS_DIR=TARGET_GUN
		CROSSPLANE_AXIS_DIR=LEFT_RIGHT
		DEPTH_AXIS_DIR=UP_DOWN
		ENERGY=6.00
		SSD=950.00
		WEDGE=None
		FIELD_INPLANE=100.00
		FIELD_CROSSPLANE=100.00
		FIELD_TYPE=RECTANGULAR
		GANTRY=0.00
		GANTRY_UPRIGHT_POSITION=0
		GANTRY_ROTATION=CW
		COLL_ANGLE=90.00
		COLL_OFFSET_INPLANE=0.00
		COLL_OFFSET_CROSSPLANE=0.00
		SCAN_DEVICE=STARCHECK
		ELECTROMETER=2D_ARRAY_INTERFACE
		DETECTOR=STARCHECK
		SCAN_CURVETYPE=CROSSPLANE_PROFILE
		SCAN_DEPTH=0.00
		SCAN_OFFAXIS_INPLANE=50.00
		SCAN_ANGLE=0.00
		SCAN_DIAGONAL=NOT_DIAGONAL
		MEAS_PRESET=TIME_PRESET
		MEAS_TIME=10.000
		MEAS_UNIT=GY
		PRESSURE=1013.25
		TEMPERATURE=20.00
		NORM_TEMPERATURE=20.00
		CORRECTION_FACTOR=1.0000
		CORRECTIONS=AIR_DENSITY_CORR;
		BEGIN_DATA
			-30.00		100.67E-03
			-15.00		102.84E-03
			15.00		95.659E-03
			30.00		96.918E-03
		END_DATA
	END_SCAN  5
	BEGIN_SCAN  6
		TASK_NAME=MODE_INTERVAL
		PROGRAM=BeamAdjust 1.2
		MEAS_DATE=07-Oct-2010 14:13:30
		LINAC=A4
		MODALITY=X
		INPLANE_AXIS_DIR=TARGET_GUN
		CROSSPLANE_AXIS_DIR=LEFT_RIGHT
		DEPTH_AXIS_DIR=UP_DOWN
		ENERGY=6.00
		SSD=950.00
		WEDGE=None
		FIELD_INPLANE=100.00
		FIELD_CROSSPLANE=100.00
		FIELD_TYPE=RECTANGULAR
		GANTRY=0.00
		GANTRY_UPRIGHT_POSITION=0
		GANTRY_ROTATION=CW
		COLL_ANGLE=90.00
		COLL_OFFSET_INPLANE=0.00
		COLL_OFFSET_CROSSPLANE=0.00
		SCAN_DEVICE=STARCHECK
		ELECTROMETER=2D_ARRAY_INTERFACE
		DETECTOR=STARCHECK
		SCAN_CURVETYPE=CROSSPLANE_PROFILE
		SCAN_DEPTH=0.00
		SCAN_OFFAXIS_INPLANE=100.00
		SCAN_ANGLE=0.00
		SCAN_DIAGONAL=NOT_DIAGONAL
		MEAS_PRESET=TIME_PRESET
		MEAS_TIME=10.000
		MEAS_UNIT=GY
		PRESSURE=1013.25
		TEMPERATURE=20.00
		NORM_TEMPERATURE=20.00
		CORRECTION_FACTOR=1.0000
		CORRECTIONS=AIR_DENSITY_CORR;
		BEGIN_DATA
			-60.00		9.6452E-03
			-30.00		13.639E-03
			30.00		13.812E-03
			60.00		8.2808E-03
		END_DATA
	END_SCAN  6
	BEGIN_SCAN  7
		TASK_NAME=MODE_INTERVAL
		PROGRAM=BeamAdjust 1.2
		MEAS_DATE=07-Oct-2010 14:13:30
		LINAC=A4
		MODALITY=X
		INPLANE_AXIS_DIR=TARGET_GUN
		CROSSPLANE_AXIS_DIR=LEFT_RIGHT
		DEPTH_AXIS_DIR=UP_DOWN
		ENERGY=6.00
		SSD=950.00
		WEDGE=None
		FIELD_INPLANE=100.00
		FIELD_CROSSPLANE=100.00
		FIELD_TYPE=RECTANGULAR
		GANTRY=0.00
		GANTRY_UPRIGHT_POSITION=0
		GANTRY_ROTATION=CW
		COLL_ANGLE=90.00
		COLL_OFFSET_INPLANE=0.00
		COLL_OFFSET_CROSSPLANE=0.00
		SCAN_DEVICE=STARCHECK
		ELECTROMETER=2D_ARRAY_INTERFACE
		DETECTOR=STARCHECK
		SCAN_CURVETYPE=CROSSPLANE_PROFILE
		SCAN_DEPTH=0.00
		SCAN_OFFAXIS_INPLANE=130.00
		SCAN_ANGLE=0.00
		SCAN_DIAGONAL=NOT_DIAGONAL
		MEAS_PRESET=TIME_PRESET
		MEAS_TIME=10.000
		MEAS_UNIT=GY
		PRESSURE=1013.25
		TEMPERATURE=20.00
		NORM_TEMPERATURE=20.00
		CORRECTION_FACTOR=1.0000
		CORRECTIONS=AIR_DENSITY_CORR;
		BEGIN_DATA
			-130.00		1.7010E-03
			-80.00		3.9679E-03
			-40.00		7.0308E-03
			40.00		6.8469E-03
			80.00		3.6550E-03
			130.00		2.0475E-03
		END_DATA
	END_SCAN  7
	BEGIN_SCAN  8
		TASK_NAME=MODE_INTERVAL
		PROGRAM=BeamAdjust 1.2
		MEAS_DATE=07-Oct-2010 14:13:30
		LINAC=A4
		MODALITY=X
		INPLANE_AXIS_DIR=TARGET_GUN
		CROSSPLANE_AXIS_DIR=LEFT_RIGHT
		DEPTH_AXIS_DIR=UP_DOWN
		ENERGY=6.00
		SSD=950.00
		WEDGE=None
		FIELD_INPLANE=100.00
		FIELD_CROSSPLANE=100.00
		FIELD_TYPE=RECTANGULAR
		GANTRY=0.00
		GANTRY_UPRIGHT_POSITION=0
		GANTRY_ROTATION=CW
		COLL_ANGLE=90.00
		COLL_OFFSET_INPLANE=0.00
		COLL_OFFSET_CROSSPLANE=0.00
		SCAN_DEVICE=STARCHECK
		ELECTROMETER=2D_ARRAY_INTERFACE
		DETECTOR=STARCHECK
		SCAN_CURVETYPE=INPLANE_PROFILE
		SCAN_DEPTH=0.00
		SCAN_OFFAXIS_CROSSPLANE=-130.00
		SCAN_ANGLE=0.00
		SCAN_DIAGONAL=NOT_DIAGONAL
		MEAS_PRESET=TIME_PRESET
		MEAS_TIME=10.000
		MEAS_UNIT=GY
		PRESSURE=1013.25
		TEMPERATURE=20.00
		NORM_TEMPERATURE=20.00
		CORRECTION_FACTOR=1.0000
		CORRECTIONS=AIR_DENSITY_CORR;
		BEGIN_DATA
			-130.00		2.5297E-03
			-125.00		2.8839E-03
			-120.00		3.4195E-03
			-115.00		3.5003E-03
			-110.00		3.4461E-03
			-105.00		3.6009E-03
			-100.00		4.1462E-03
			-95.00		4.7853E-03
			-90.00		4.8820E-03
			-85.00		4.4726E-03
			-80.00		4.3261E-03
			-75.00		5.0662E-03
			-70.00		5.2262E-03
			-65.00		5.3926E-03
			-60.00		5.3899E-03
			-55.00		5.9333E-03
			-50.00		4.1589E-03
			-45.00		4.8942E-03
			-40.00		5.1973E-03
			-35.00		5.8729E-03
			-30.00		5.7466E-03
			-25.00		5.1105E-03
			-20.00		5.0203E-03
			-15.00		4.8728E-03
			-10.00		5.4322E-03
			-5.00		6.6771E-03
			0.00		5.9451E-03
			5.00		6.3657E-03
			10.00		5.7026E-03
			15.00		5.4974E-03
			20.00		5.7277E-03
			25.00		5.8249E-03
			30.00		5.5468E-03
			35.00		5.4659E-03
			40.00		4.7377E-03
			45.00		4.5643E-03
			50.00		5.0503E-03
			55.00		4.5255E-03
			60.00		4.3579E-03
			65.00		3.6833E-03
			70.00		3.6655E-03
			75.00		3.8885E-03
			80.00		3.6592E-03
			85.00		3.4643E-03
			90.00		2.9083E-03
			95.00		3.7262E-03
			100.00		2.9369E-03
			105.00		2.5952E-03
			110.00		2.4933E-03
			115.00		1.9979E-03
			120.00		2.3268E-03
			125.00		2.3836E-03
			130.00		1.7010E-03
		END_DATA
	END_SCAN  8
	BEGIN_SCAN  9
		TASK_NAME=MODE_INTERVAL
		PROGRAM=BeamAdjust 1.2
		MEAS_DATE=07-Oct-2010 14:13:30
		LINAC=A4
		MODALITY=X
		INPLANE_AXIS_DIR=TARGET_GUN
		CROSSPLANE_AXIS_DIR=LEFT_RIGHT
		DEPTH_AXIS_DIR=UP_DOWN
		ENERGY=6.00
		SSD=950.00
		WEDGE=None
		FIELD_INPLANE=100.00
		FIELD_CROSSPLANE=100.00
		FIELD_TYPE=RECTANGULAR
		GANTRY=0.00
		GANTRY_UPRIGHT_POSITION=0
		GANTRY_ROTATION=CW
		COLL_ANGLE=90.00
		COLL_OFFSET_INPLANE=0.00
		COLL_OFFSET_CROSSPLANE=0.00
		SCAN_DEVICE=STARCHECK
		ELECTROMETER=2D_ARRAY_INTERFACE
		DETECTOR=STARCHECK
		SCAN_CURVETYPE=INPLANE_PROFILE
		SCAN_DEPTH=0.00
		SCAN_OFFAXIS_CROSSPLANE=-100.00
		SCAN_ANGLE=0.00
		SCAN_DIAGONAL=NOT_DIAGONAL
		MEAS_PRESET=TIME_PRESET
		MEAS_TIME=10.000
		MEAS_UNIT=GY
		PRESSURE=1013.25
		TEMPERATURE=20.00
		NORM_TEMPERATURE=20.00
		CORRECTION_FACTOR=1.0000
		CORRECTIONS=AIR_DENSITY_CORR;
		BEGIN_DATA
			-60.00		8.6719E-03
			-30.00		10.606E-03
			30.00		10.067E-03
			60.00		7.9126E-03
		END_DATA
	END_SCAN  9
	BEGIN_SCAN  10
		TASK_NAME=MODE_INTERVAL
		PROGRAM=BeamAdjust 1.2
		MEAS_DATE=07-Oct-2010 14:13:30
		LINAC=A4
		MODALITY=X
		INPLANE_AXIS_DIR=TARGET_GUN
		CROSSPLANE_AXIS_DIR=LEFT_RIGHT
		DEPTH_AXIS_DIR=UP_DOWN
		ENERGY=6.00
		SSD=950.00
		WEDGE=None
		FIELD_INPLANE=100.00
		FIELD_CROSSPLANE=100.00
		FIELD_TYPE=RECTANGULAR
		GANTRY=0.00
		GANTRY_UPRIGHT_POSITION=0
		GANTRY_ROTATION=CW
		COLL_ANGLE=90.00
		COLL_OFFSET_INPLANE=0.00
		COLL_OFFSET_CROSSPLANE=0.00
		SCAN_DEVICE=STARCHECK
		ELECTROMETER=2D_ARRAY_INTERFACE
		DETECTOR=STARCHECK
		SCAN_CURVETYPE=INPLANE_PROFILE
		SCAN_DEPTH=0.00
		SCAN_OFFAXIS_CROSSPLANE=-50.00
		SCAN_ANGLE=0.00
		SCAN_DIAGONAL=NOT_DIAGONAL
		MEAS_PRESET=TIME_PRESET
		MEAS_TIME=10.000
		MEAS_UNIT=GY
		PRESSURE=1013.25
		TEMPERATURE=20.00
		NORM_TEMPERATURE=20.00
		CORRECTION_FACTOR=1.0000
		CORRECTIONS=AIR_DENSITY_CORR;
		BEGIN_DATA
			-30.00		400.00E-03
			-15.00		395.63E-03
			15.00		384.45E-03
			30.00		371.87E-03
		END_DATA
	END_SCAN  10
	BEGIN_SCAN  11
		TASK_NAME=MODE_INTERVAL
		PROGRAM=BeamAdjust 1.2
		MEAS_DATE=07-Oct-2010 14:13:30
		LINAC=A4
		MODALITY=X
		INPLANE_AXIS_DIR=TARGET_GUN
		CROSSPLANE_AXIS_DIR=LEFT_RIGHT
		DEPTH_AXIS_DIR=UP_DOWN
		ENERGY=6.00
		SSD=950.00
		WEDGE=None
		FIELD_INPLANE=100.00
		FIELD_CROSSPLANE=100.00
		FIELD_TYPE=RECTANGULAR
		GANTRY=0.00
		GANTRY_UPRIGHT_POSITION=0
		GANTRY_ROTATION=CW
		COLL_ANGLE=90.00
		COLL_OFFSET_INPLANE=0.00
		COLL_OFFSET_CROSSPLANE=0.00
		SCAN_DEVICE=STARCHECK
		ELECTROMETER=2D_ARRAY_INTERFACE
		DETECTOR=STARCHECK
		SCAN_CURVETYPE=INPLANE_PROFILE
		SCAN_DEPTH=0.00
		SCAN_OFFAXIS_CROSSPLANE=0.00
		SCAN_ANGLE=0.00
		SCAN_DIAGONAL=NOT_DIAGONAL
		MEAS_PRESET=TIME_PRESET
		MEAS_TIME=10.000
		MEAS_UNIT=GY
		PRESSURE=1013.25
		TEMPERATURE=20.00
		NORM_TEMPERATURE=20.00
		CORRECTION_FACTOR=1.0000
		CORRECTIONS=AIR_DENSITY_CORR;
		BEGIN_DATA
			-126.00		9.6312E-03
			-123.00		9.6218E-03
			-120.00		11.196E-03
			-117.00		12.432E-03
			-114.00		12.621E-03
			-111.00		13.363E-03
			-108.00		14.550E-03
			-105.00		16.031E-03
			-102.00		17.817E-03
			-99.00		18.932E-03
			-96.00		19.836E-03
			-93.00		22.204E-03
			-90.00		23.829E-03
			-87.00		26.114E-03
			-84.00		28.432E-03
			-81.00		30.876E-03
			-78.00		34.015E-03
			-75.00		37.318E-03
			-72.00		41.903E-03
			-69.00		46.812E-03
			-66.00		54.170E-03
			-63.00		65.327E-03
			-60.00		88.257E-03
			-57.00		154.33E-03
			-54.00		363.05E-03
			-51.00		578.94E-03
			-48.00		630.47E-03
			-45.00		646.65E-03
			-42.00		654.49E-03
			-39.00		659.37E-03
			-36.00		662.46E-03
			-33.00		664.23E-03
			-30.00		666.74E-03
			-27.00		667.57E-03
			-24.00		666.73E-03
			-21.00		666.98E-03
			-18.00		673.58E-03
			-15.00		670.60E-03
			-12.00		669.89E-03
			-9.00		669.62E-03
			-6.00		667.12E-03
			0.00		669.35E-03
			6.00		673.07E-03
			9.00		670.71E-03
			12.00		668.53E-03
			15.00		667.06E-03
			18.00		663.71E-03
			21.00		662.99E-03
			24.00		658.94E-03
			27.00		659.51E-03
			30.00		653.86E-03
			33.00		650.30E-03
			36.00		644.55E-03
			39.00		624.15E-03
			42.00		580.66E-03
			45.00		379.36E-03
			48.00		160.80E-03
			51.00		90.865E-03
			54.00		65.757E-03
			57.00		54.625E-03
			60.00		47.359E-03
			63.00		41.512E-03
			66.00		37.669E-03
			69.00		33.872E-03
			72.00		31.001E-03
			75.00		28.408E-03
			78.00		24.907E-03
			81.00		23.017E-03
			84.00		21.720E-03
			87.00		20.106E-03
			90.00		18.855E-03
			93.00		17.396E-03
			96.00		16.373E-03
			99.00		14.670E-03
			102.00		12.959E-03
			105.00		11.972E-03
			108.00		12.164E-03
			111.00		11.506E-03
			114.00		10.747E-03
			117.00		9.9002E-03
			120.00		8.9082E-03
			123.00		8.4564E-03
			126.00		7.9045E-03
		END_DATA
	END_SCAN  11
	BEGIN_SCAN  12
		TASK_NAME=MODE_INTERVAL
		PROGRAM=BeamAdjust 1.2
		MEAS_DATE=07-Oct-2010 14:13:30
		LINAC=A4
		MODALITY=X
		INPLANE_AXIS_DIR=TARGET_GUN
		CROSSPLANE_AXIS_DIR=LEFT_RIGHT
		DEPTH_AXIS_DIR=UP_DOWN
		ENERGY=6.00
		SSD=950.00
		WEDGE=None
		FIELD_INPLANE=100.00
		FIELD_CROSSPLANE=100.00
		FIELD_TYPE=RECTANGULAR
		GANTRY=0.00
		GANTRY_UPRIGHT_POSITION=0
		GANTRY_ROTATION=CW
		COLL_ANGLE=90.00
		COLL_OFFSET_INPLANE=0.00
		COLL_OFFSET_CROSSPLANE=0.00
		SCAN_DEVICE=STARCHECK
		ELECTROMETER=2D_ARRAY_INTERFACE
		DETECTOR=STARCHECK
		SCAN_CURVETYPE=INPLANE_PROFILE
		SCAN_DEPTH=0.00
		SCAN_OFFAXIS_CROSSPLANE=50.00
		SCAN_ANGLE=0.00
		SCAN_DIAGONAL=NOT_DIAGONAL
		MEAS_PRESET=TIME_PRESET
		MEAS_TIME=10.000
		MEAS_UNIT=GY
		PRESSURE=1013.25
		TEMPERATURE=20.00
		NORM_TEMPERATURE=20.00
		CORRECTION_FACTOR=1.0000
		CORRECTIONS=AIR_DENSITY_CORR;
		BEGIN_DATA
			-30.00		327.71E-03
			-15.00		335.22E-03
			15.00		341.75E-03
			30.00		340.83E-03
		END_DATA
	END_SCAN  12
	BEGIN_SCAN  13
		TASK_NAME=MODE_INTERVAL
		PROGRAM=BeamAdjust 1.2
		MEAS_DATE=07-Oct-2010 14:13:30
		LINAC=A4
		MODALITY=X
		INPLANE_AXIS_DIR=TARGET_GUN
		CROSSPLANE_AXIS_DIR=LEFT_RIGHT
		DEPTH_AXIS_DIR=UP_DOWN
		ENERGY=6.00
		SSD=950.00
		WEDGE=None
		FIELD_INPLANE=100.00
		FIELD_CROSSPLANE=100.00
		FIELD_TYPE=RECTANGULAR
		GANTRY=0.00
		GANTRY_UPRIGHT_POSITION=0
		GANTRY_ROTATION=CW
		COLL_ANGLE=90.00
		COLL_OFFSET_INPLANE=0.00
		COLL_OFFSET_CROSSPLANE=0.00
		SCAN_DEVICE=STARCHECK
		ELECTROMETER=2D_ARRAY_INTERFACE
		DETECTOR=STARCHECK
		SCAN_CURVETYPE=INPLANE_PROFILE
		SCAN_DEPTH=0.00
		SCAN_OFFAXIS_CROSSPLANE=100.00
		SCAN_ANGLE=0.00
		SCAN_DIAGONAL=NOT_DIAGONAL
		MEAS_PRESET=TIME_PRESET
		MEAS_TIME=10.000
		MEAS_UNIT=GY
		PRESSURE=1013.25
		TEMPERATURE=20.00
		NORM_TEMPERATURE=20.00
		CORRECTION_FACTOR=1.0000
		CORRECTIONS=AIR_DENSITY_CORR;
		BEGIN_DATA
			-60.00		7.9442E-03
			-30.00		10.426E-03
			30.00		10.497E-03
			60.00		7.3203E-03
		END_DATA
	END_SCAN  13
	BEGIN_SCAN  14
		TASK_NAME=MODE_INTERVAL
		PROGRAM=BeamAdjust 1.2
		MEAS_DATE=07-Oct-2010 14:13:30
		LINAC=A4
		MODALITY=X
		INPLANE_AXIS_DIR=TARGET_GUN
		CROSSPLANE_AXIS_DIR=LEFT_RIGHT
		DEPTH_AXIS_DIR=UP_DOWN
		ENERGY=6.00
		SSD=950.00
		WEDGE=None
		FIELD_INPLANE=100.00
		FIELD_CROSSPLANE=100.00
		FIELD_TYPE=RECTANGULAR
		GANTRY=0.00
		GANTRY_UPRIGHT_POSITION=0
		GANTRY_ROTATION=CW
		COLL_ANGLE=90.00
		COLL_OFFSET_INPLANE=0.00
		COLL_OFFSET_CROSSPLANE=0.00
		SCAN_DEVICE=STARCHECK
		ELECTROMETER=2D_ARRAY_INTERFACE
		DETECTOR=STARCHECK
		SCAN_CURVETYPE=INPLANE_PROFILE
		SCAN_DEPTH=0.00
		SCAN_OFFAXIS_CROSSPLANE=130.00
		SCAN_ANGLE=0.00
		SCAN_DIAGONAL=NOT_DIAGONAL
		MEAS_PRESET=TIME_PRESET
		MEAS_TIME=10.000
		MEAS_UNIT=GY
		PRESSURE=1013.25
		TEMPERATURE=20.00
		NORM_TEMPERATURE=20.00
		CORRECTION_FACTOR=1.0000
		CORRECTIONS=AIR_DENSITY_CORR;
		BEGIN_DATA
			-130.00		1.9539E-03
			-125.00		2.4840E-03
			-120.00		2.3339E-03
			-115.00		2.8471E-03
			-110.00		2.7164E-03
			-105.00		3.0007E-03
			-100.00		3.8055E-03
			-95.00		2.9928E-03
			-90.00		2.6747E-03
			-85.00		3.7060E-03
			-80.00		3.7256E-03
			-75.00		3.7711E-03
			-70.00		4.1180E-03
			-65.00		4.0514E-03
			-60.00		4.7978E-03
			-55.00		4.6321E-03
			-50.00		4.4923E-03
			-45.00		4.9437E-03
			-40.00		5.0649E-03
			-35.00		4.8853E-03
			-30.00		5.8606E-03
			-25.00		5.1599E-03
			-20.00		5.8230E-03
			-15.00		5.6322E-03
			-10.00		4.8849E-03
			-5.00		5.8907E-03
			0.00		5.8715E-03
			5.00		5.4468E-03
			10.00		5.7429E-03
			15.00		5.2117E-03
			20.00		5.4430E-03
			25.00		5.6378E-03
			30.00		5.0771E-03
			35.00		5.0836E-03
			40.00		5.8490E-03
			45.00		4.8792E-03
			50.00		4.6688E-03
			55.00		5.1733E-03
			60.00		4.7300E-03
			65.00		3.7714E-03
			70.00		3.7151E-03
			75.00		3.8433E-03
			80.00		3.7816E-03
			85.00		3.9123E-03
			90.00		3.5903E-03
			95.00		3.2865E-03
			100.00		3.0922E-03
			105.00		2.4929E-03
			110.00		3.1335E-03
			115.00		2.8905E-03
			120.00		2.8112E-03
			125.00		1.9305E-03
			130.00		2.0475E-03
		END_DATA
	END_SCAN  14
	BEGIN_SCAN  15
		TASK_NAME=MODE_INTERVAL
		PROGRAM=BeamAdjust 1.2
		MEAS_DATE=07-Oct-2010 14:13:30
		LINAC=A4
		MODALITY=X
		INPLANE_AXIS_DIR=TARGET_GUN
		CROSSPLANE_AXIS_DIR=LEFT_RIGHT
		DEPTH_AXIS_DIR=UP_DOWN
		ENERGY=6.00
		SSD=950.00
		WEDGE=None
		FIELD_INPLANE=100.00
		FIELD_CROSSPLANE=100.00
		FIELD_TYPE=RECTANGULAR
		GANTRY=0.00
		GANTRY_UPRIGHT_POSITION=0
		GANTRY_ROTATION=CW
		COLL_ANGLE=90.00
		COLL_OFFSET_INPLANE=0.00
		COLL_OFFSET_CROSSPLANE=0.00
		SCAN_DEVICE=STARCHECK
		ELECTROMETER=2D_ARRAY_INTERFACE
		DETECTOR=STARCHECK
		SCAN_CURVETYPE=INPLANE_PROFILE
		SCAN_DEPTH=0.00
		SCAN_OFFAXIS_CROSSPLANE=0.00
		SCAN_ANGLE=0.00
		SCAN_DIAGONAL=FIRST_DIAGONAL
		MEAS_PRESET=TIME_PRESET
		MEAS_TIME=10.000
		MEAS_UNIT=GY
		PRESSURE=1013.25
		TEMPERATURE=20.00
		NORM_TEMPERATURE=20.00
		CORRECTION_FACTOR=1.0000
		CORRECTIONS=AIR_DENSITY_CORR;
		BEGIN_DATA
			-172.40		2.8242E-03
			-169.40		3.1434E-03
			-166.40		4.0925E-03
			-163.40		3.8734E-03
			-160.40		4.0191E-03
			-157.40		4.0662E-03
			-154.40		4.1856E-03
			-151.40		4.1888E-03
			-148.40		4.9958E-03
			-145.40		5.7109E-03
			-142.40		6.0292E-03
			-139.40		6.1527E-03
			-136.40		6.3729E-03
			-133.40		7.2050E-03
			-130.40		7.8023E-03
			-127.40		8.2917E-03
			-124.40		8.2086E-03
			-121.40		9.1034E-03
			-118.40		10.123E-03
			-115.40		11.755E-03
			-112.40		12.538E-03
			-109.40		13.474E-03
			-106.40		14.308E-03
			-103.40		15.571E-03
			-100.40		16.984E-03
			-97.40		19.571E-03
			-94.40		21.572E-03
			-91.40		23.789E-03
			-88.40		27.125E-03
			-85.40		30.807E-03
			-82.40		37.394E-03
			-79.40		47.942E-03
			-76.40		74.359E-03
			-73.40		176.29E-03
			-70.40		364.07E-03
			-67.40		517.24E-03
			-64.40		592.71E-03
			-61.40		621.19E-03
			-58.40		633.99E-03
			-55.40		642.61E-03
			-52.40		648.08E-03
			-49.40		652.46E-03
			-46.40		654.32E-03
			-43.40		656.42E-03
			-40.40		658.89E-03
			-37.40		663.14E-03
			-34.40		662.63E-03
			-31.40		664.12E-03
			-28.40		662.43E-03
			-25.40		665.32E-03
			-22.40		666.36E-03
			-19.40		667.92E-03
			-16.40		670.19E-03
			-13.40		671.34E-03
			0.00		669.35E-03
			13.40		670.72E-03
			16.40		666.74E-03
			19.40		666.86E-03
			22.40		665.62E-03
			25.40		664.65E-03
			28.40		663.08E-03
			31.40		660.41E-03
			34.40		656.73E-03
			37.40		658.25E-03
			40.40		655.06E-03
			43.40		651.13E-03
			46.40		648.92E-03
			49.40		639.87E-03
			52.40		630.15E-03
			55.40		605.98E-03
			58.40		555.75E-03
			61.40		440.49E-03
			64.40		278.95E-03
			67.40		134.26E-03
			70.40		66.334E-03
			73.40		45.464E-03
			76.40		36.179E-03
			79.40		31.086E-03
			82.40		27.043E-03
			85.40		23.685E-03
			88.40		22.282E-03
			91.40		19.224E-03
			94.40		17.513E-03
			97.40		15.985E-03
			100.40		14.656E-03
			103.40		13.584E-03
			106.40		12.350E-03
			109.40		11.427E-03
			112.40		9.8017E-03
			115.40		9.2845E-03
			118.40		8.3178E-03
			121.40		7.8394E-03
			124.40		7.5025E-03
			127.40		7.1520E-03
			130.40		7.4256E-03
			133.40		5.7175E-03
			136.40		4.8301E-03
			139.40		4.6041E-03
			142.40		4.4887E-03
			145.40		4.3701E-03
			148.40		4.6341E-03
			151.40		3.6281E-03
			154.40		3.6290E-03
			157.40		3.1807E-03
			160.40		2.3955E-03
			163.40		2.5619E-03
			166.40		2.9539E-03
			169.40		2.4836E-03
			172.40		2.8952E-03
		END_DATA
	END_SCAN  15
	BEGIN_SCAN  16
		TASK_NAME=MODE_INTERVAL
		PROGRAM=BeamAdjust 1.2
		MEAS_DATE=07-Oct-2010 14:13:30
		LINAC=A4
		MODALITY=X
		INPLANE_AXIS_DIR=GUN_TARGET
		CROSSPLANE_AXIS_DIR=LEFT_RIGHT
		DEPTH_AXIS_DIR=UP_DOWN
		ENERGY=6.00
		SSD=950.00
		WEDGE=None
		FIELD_INPLANE=100.00
		FIELD_CROSSPLANE=100.00
		FIELD_TYPE=RECTANGULAR
		GANTRY=0.00
		GANTRY_UPRIGHT_POSITION=0
		GANTRY_ROTATION=CW
		COLL_ANGLE=90.00
		COLL_OFFSET_INPLANE=0.00
		COLL_OFFSET_CROSSPLANE=0.00
		SCAN_DEVICE=STARCHECK
		ELECTROMETER=2D_ARRAY_INTERFACE
		DETECTOR=STARCHECK
		SCAN_CURVETYPE=INPLANE_PROFILE
		SCAN_DEPTH=0.00
		SCAN_OFFAXIS_CROSSPLANE=0.00
		SCAN_ANGLE=0.00
		SCAN_DIAGONAL=SECOND_DIAGONAL
		MEAS_PRESET=TIME_PRESET
		MEAS_TIME=10.000
		MEAS_UNIT=GY
		PRESSURE=1013.25
		TEMPERATURE=20.00
		NORM_TEMPERATURE=20.00
		CORRECTION_FACTOR=1.0000
		CORRECTIONS=AIR_DENSITY_CORR;
		BEGIN_DATA
			-172.40		2.7700E-03
			-169.40		2.9097E-03
			-166.40		3.0113E-03
			-163.40		3.5986E-03
			-160.40		3.2492E-03
			-157.40		3.7341E-03
			-154.40		4.1768E-03
			-151.40		4.7128E-03
			-148.40		4.6794E-03
			-145.40		4.7279E-03
			-142.40		5.1852E-03
			-139.40		5.5291E-03
			-136.40		6.1749E-03
			-133.40		7.0034E-03
			-130.40		7.4693E-03
			-127.40		8.1286E-03
			-124.40		8.7946E-03
			-121.40		10.019E-03
			-118.40		10.192E-03
			-115.40		10.604E-03
			-112.40		11.235E-03
			-109.40		12.666E-03
			-106.40		14.138E-03
			-103.40		15.485E-03
			-100.40		17.237E-03
			-97.40		18.557E-03
			-94.40		20.376E-03
			-91.40		23.093E-03
			-88.40		25.288E-03
			-85.40		29.260E-03
			-82.40		34.656E-03
			-79.40		44.132E-03
			-76.40		62.055E-03
			-73.40		127.79E-03
			-70.40		294.49E-03
			-67.40		465.99E-03
			-64.40		575.70E-03
			-61.40		617.61E-03
			-58.40		636.58E-03
			-55.40		644.67E-03
			-52.40		654.42E-03
			-49.40		657.88E-03
			-46.40		660.38E-03
			-43.40		662.88E-03
			-40.40		664.42E-03
			-37.40		667.96E-03
			-34.40		666.43E-03
			-31.40		666.65E-03
			-28.40		668.84E-03
			-25.40		667.55E-03
			-22.40		666.00E-03
			-19.40		669.84E-03
			-16.40		671.33E-03
			-13.40		673.05E-03
			0.00		669.35E-03
			13.40		669.67E-03
			16.40		667.07E-03
			19.40		664.28E-03
			22.40		661.82E-03
			25.40		661.82E-03
			28.40		660.92E-03
			31.40		658.06E-03
			34.40		654.43E-03
			37.40		653.53E-03
			40.40		651.86E-03
			43.40		649.10E-03
			46.40		645.73E-03
			49.40		639.36E-03
			52.40		626.98E-03
			55.40		608.31E-03
			58.40		567.56E-03
			61.40		463.65E-03
			64.40		305.17E-03
			67.40		148.21E-03
			70.40		71.373E-03
			73.40		46.658E-03
			76.40		36.741E-03
			79.40		31.015E-03
			82.40		27.806E-03
			85.40		24.674E-03
			88.40		22.015E-03
			91.40		20.154E-03
			94.40		18.164E-03
			97.40		16.801E-03
			100.40		14.449E-03
			103.40		13.049E-03
			106.40		12.229E-03
			109.40		10.999E-03
			112.40		10.727E-03
			115.40		9.7538E-03
			118.40		9.0619E-03
			121.40		8.1506E-03
			124.40		7.2958E-03
			127.40		6.6878E-03
			130.40		7.0008E-03
			133.40		6.2865E-03
			136.40		5.7063E-03
			139.40		5.8654E-03
			142.40		5.2142E-03
			145.40		4.9526E-03
			148.40		4.4983E-03
			151.40		4.2949E-03
			154.40		4.2271E-03
			157.40		3.6535E-03
			160.40		3.3420E-03
			163.40		3.5625E-03
			166.40		3.2298E-03
			169.40		2.5633E-03
			172.40		2.5607E-03
		END_DATA
	END_SCAN  16
END_SCAN_DATA
