BEGIN_SCAN_DATA
	FORMAT=CC-Export V1.9                  
	FILE_CREATION_DATE=07-Oct-2010 14:12:58
	LAST_MODIFIED=07-Oct-2010 14:12:58
	BEGIN_SCAN  1
		TASK_NAME=MODE_INTERVAL
		PROGRAM=BeamAdjust 1.2
		MEAS_DATE=07-Oct-2010 14:12:58
		LINAC=A4
		MODALITY=X
		INPLANE_AXIS_DIR=TARGET_GUN
		CROSSPLANE_AXIS_DIR=LEFT_RIGHT
		DEPTH_AXIS_DIR=UP_DOWN
		ENERGY=6.00
		SSD=950.00
		WEDGE=None
		FIELD_INPLANE=100.00
		FIELD_CROSSPLANE=100.00
		FIELD_TYPE=RECTANGULAR
		GANTRY=0.00
		GANTRY_UPRIGHT_POSITION=0
		GANTRY_ROTATION=CW
		COLL_ANGLE=90.00
		COLL_OFFSET_INPLANE=0.00
		COLL_OFFSET_CROSSPLANE=0.00
		SCAN_DEVICE=STARCHECK
		ELECTROMETER=2D_ARRAY_INTERFACE
		DETECTOR=STARCHECK
		SCAN_CURVETYPE=CROSSPLANE_PROFILE
		SCAN_DEPTH=0.00
		SCAN_OFFAXIS_INPLANE=-130.00
		SCAN_ANGLE=0.00
		SCAN_DIAGONAL=NOT_DIAGONAL
		MEAS_PRESET=TIME_PRESET
		MEAS_TIME=10.000
		MEAS_UNIT=GY
		PRESSURE=1013.25
		TEMPERATURE=20.00
		NORM_TEMPERATURE=20.00
		CORRECTION_FACTOR=1.0000
		CORRECTIONS=AIR_DENSITY_CORR;
		BEGIN_DATA
			-130.00		2.7139E-03
			-80.00		4.3450E-03
			-40.00		7.3448E-03
			40.00		7.7857E-03
			80.00		4.0844E-03
			130.00		2.1484E-03
		END_DATA
	END_SCAN  1
	BEGIN_SCAN  2
		TASK_NAME=MODE_INTERVAL
		PROGRAM=BeamAdjust 1.2
		MEAS_DATE=07-Oct-2010 14:12:58
		LINAC=A4
		MODALITY=X
		INPLANE_AXIS_DIR=TARGET_GUN
		CROSSPLANE_AXIS_DIR=LEFT_RIGHT
		DEPTH_AXIS_DIR=UP_DOWN
		ENERGY=6.00
		SSD=950.00
		WEDGE=None
		FIELD_INPLANE=100.00
		FIELD_CROSSPLANE=100.00
		FIELD_TYPE=RECTANGULAR
		GANTRY=0.00
		GANTRY_UPRIGHT_POSITION=0
		GANTRY_ROTATION=CW
		COLL_ANGLE=90.00
		COLL_OFFSET_INPLANE=0.00
		COLL_OFFSET_CROSSPLANE=0.00
		SCAN_DEVICE=STARCHECK
		ELECTROMETER=2D_ARRAY_INTERFACE
		DETECTOR=STARCHECK
		SCAN_CURVETYPE=CROSSPLANE_PROFILE
		SCAN_DEPTH=0.00
		SCAN_OFFAXIS_INPLANE=-100.00
		SCAN_ANGLE=0.00
		SCAN_DIAGONAL=NOT_DIAGONAL
		MEAS_PRESET=TIME_PRESET
		MEAS_TIME=10.000
		MEAS_UNIT=GY
		PRESSURE=1013.25
		TEMPERATURE=20.00
		NORM_TEMPERATURE=20.00
		CORRECTION_FACTOR=1.0000
		CORRECTIONS=AIR_DENSITY_CORR;
		BEGIN_DATA
			-60.00		11.249E-03
			-30.00		15.555E-03
			30.00		16.680E-03
			60.00		10.972E-03
		END_DATA
	END_SCAN  2
	BEGIN_SCAN  3
		TASK_NAME=MODE_INTERVAL
		PROGRAM=BeamAdjust 1.2
		MEAS_DATE=07-Oct-2010 14:12:58
		LINAC=A4
		MODALITY=X
		INPLANE_AXIS_DIR=TARGET_GUN
		CROSSPLANE_AXIS_DIR=LEFT_RIGHT
		DEPTH_AXIS_DIR=UP_DOWN
		ENERGY=6.00
		SSD=950.00
		WEDGE=None
		FIELD_INPLANE=100.00
		FIELD_CROSSPLANE=100.00
		FIELD_TYPE=RECTANGULAR
		GANTRY=0.00
		GANTRY_UPRIGHT_POSITION=0
		GANTRY_ROTATION=CW
		COLL_ANGLE=90.00
		COLL_OFFSET_INPLANE=0.00
		COLL_OFFSET_CROSSPLANE=0.00
		SCAN_DEVICE=STARCHECK
		ELECTROMETER=2D_ARRAY_INTERFACE
		DETECTOR=STARCHECK
		SCAN_CURVETYPE=CROSSPLANE_PROFILE
		SCAN_DEPTH=0.00
		SCAN_OFFAXIS_INPLANE=-50.00
		SCAN_ANGLE=0.00
		SCAN_DIAGONAL=NOT_DIAGONAL
		MEAS_PRESET=TIME_PRESET
		MEAS_TIME=10.000
		MEAS_UNIT=GY
		PRESSURE=1013.25
		TEMPERATURE=20.00
		NORM_TEMPERATURE=20.00
		CORRECTION_FACTOR=1.0000
		CORRECTIONS=AIR_DENSITY_CORR;
		BEGIN_DATA
			-30.00		615.41E-03
			-15.00		605.27E-03
			15.00		618.29E-03
			30.00		616.53E-03
		END_DATA
	END_SCAN  3
	BEGIN_SCAN  4
		TASK_NAME=MODE_INTERVAL
		PROGRAM=BeamAdjust 1.2
		MEAS_DATE=07-Oct-2010 14:12:58
		LINAC=A4
		MODALITY=X
		INPLANE_AXIS_DIR=TARGET_GUN
		CROSSPLANE_AXIS_DIR=LEFT_RIGHT
		DEPTH_AXIS_DIR=UP_DOWN
		ENERGY=6.00
		SSD=950.00
		WEDGE=None
		FIELD_INPLANE=100.00
		FIELD_CROSSPLANE=100.00
		FIELD_TYPE=RECTANGULAR
		GANTRY=0.00
		GANTRY_UPRIGHT_POSITION=0
		GANTRY_ROTATION=CW
		COLL_ANGLE=90.00
		COLL_OFFSET_INPLANE=0.00
		COLL_OFFSET_CROSSPLANE=0.00
		SCAN_DEVICE=STARCHECK
		ELECTROMETER=2D_ARRAY_INTERFACE
		DETECTOR=STARCHECK
		SCAN_CURVETYPE=CROSSPLANE_PROFILE
		SCAN_DEPTH=0.00
		SCAN_OFFAXIS_INPLANE=0.00
		SCAN_ANGLE=0.00
		SCAN_DIAGONAL=NOT_DIAGONAL
		MEAS_PRESET=TIME_PRESET
		MEAS_TIME=10.000
		MEAS_UNIT=GY
		PRESSURE=1013.25
		TEMPERATURE=20.00
		NORM_TEMPERATURE=20.00
		CORRECTION_FACTOR=1.0000
		CORRECTIONS=AIR_DENSITY_CORR;
		BEGIN_DATA
			-126.00		6.5260E-03
			-123.00		7.5264E-03
			-120.00		7.8065E-03
			-117.00		8.5867E-03
			-114.00		8.7820E-03
			-111.00		9.1652E-03
			-108.00		10.035E-03
			-105.00		11.518E-03
			-102.00		11.978E-03
			-99.00		12.751E-03
			-96.00		13.766E-03
			-93.00		15.518E-03
			-90.00		16.690E-03
			-87.00		17.710E-03
			-84.00		20.075E-03
			-81.00		21.755E-03
			-78.00		24.303E-03
			-75.00		26.910E-03
			-72.00		29.583E-03
			-69.00		33.902E-03
			-66.00		39.072E-03
			-63.00		45.888E-03
			-60.00		55.015E-03
			-57.00		72.710E-03
			-54.00		114.56E-03
			-51.00		292.67E-03
			-48.00		555.66E-03
			-45.00		616.98E-03
			-42.00		636.54E-03
			-39.00		648.89E-03
			-36.00		654.71E-03
			-33.00		655.18E-03
			-30.00		656.95E-03
			-27.00		659.75E-03
			-24.00		661.90E-03
			-21.00		661.92E-03
			-18.00		667.05E-03
			-15.00		667.36E-03
			-12.00		667.15E-03
			-9.00		670.11E-03
			-6.00		669.29E-03
			0.00		669.46E-03
			6.00		671.81E-03
			9.00		670.78E-03
			12.00		668.08E-03
			15.00		666.81E-03
			18.00		665.91E-03
			21.00		664.29E-03
			24.00		661.30E-03
			27.00		665.38E-03
			30.00		663.57E-03
			33.00		660.90E-03
			36.00		657.65E-03
			39.00		651.42E-03
			42.00		639.63E-03
			45.00		614.83E-03
			48.00		524.68E-03
			51.00		230.95E-03
			54.00		101.73E-03
			57.00		68.320E-03
			60.00		52.678E-03
			63.00		43.802E-03
			66.00		37.380E-03
			69.00		33.067E-03
			72.00		29.952E-03
			75.00		26.272E-03
			78.00		23.336E-03
			81.00		21.319E-03
			84.00		19.591E-03
			87.00		17.534E-03
			90.00		16.656E-03
			93.00		14.882E-03
			96.00		13.302E-03
			99.00		12.541E-03
			102.00		11.692E-03
			105.00		10.638E-03
			108.00		10.343E-03
			111.00		9.0168E-03
			114.00		9.0140E-03
			117.00		7.9060E-03
			120.00		6.9652E-03
			123.00		6.9189E-03
			126.00		6.9954E-03
		END_DATA
	END_SCAN  4
	BEGIN_SCAN  5
		TASK_NAME=MODE_INTERVAL
		PROGRAM=BeamAdjust 1.2
		MEAS_DATE=07-Oct-2010 14:12:58
		LINAC=A4
		MODALITY=X
		INPLANE_AXIS_DIR=TARGET_GUN
		CROSSPLANE_AXIS_DIR=LEFT_RIGHT
		DEPTH_AXIS_DIR=UP_DOWN
		ENERGY=6.00
		SSD=950.00
		WEDGE=None
		FIELD_INPLANE=100.00
		FIELD_CROSSPLANE=100.00
		FIELD_TYPE=RECTANGULAR
		GANTRY=0.00
		GANTRY_UPRIGHT_POSITION=0
		GANTRY_ROTATION=CW
		COLL_ANGLE=90.00
		COLL_OFFSET_INPLANE=0.00
		COLL_OFFSET_CROSSPLANE=0.00
		SCAN_DEVICE=STARCHECK
		ELECTROMETER=2D_ARRAY_INTERFACE
		DETECTOR=STARCHECK
		SCAN_CURVETYPE=CROSSPLANE_PROFILE
		SCAN_DEPTH=0.00
		SCAN_OFFAXIS_INPLANE=50.00
		SCAN_ANGLE=0.00
		SCAN_DIAGONAL=NOT_DIAGONAL
		MEAS_PRESET=TIME_PRESET
		MEAS_TIME=10.000
		MEAS_UNIT=GY
		PRESSURE=1013.25
		TEMPERATURE=20.00
		NORM_TEMPERATURE=20.00
		CORRECTION_FACTOR=1.0000
		CORRECTIONS=AIR_DENSITY_CORR;
		BEGIN_DATA
			-30.00		94.277E-03
			-15.00		96.744E-03
			15.00		90.738E-03
			30.00		90.607E-03
		END_DATA
	END_SCAN  5
	BEGIN_SCAN  6
		TASK_NAME=MODE_INTERVAL
		PROGRAM=BeamAdjust 1.2
		MEAS_DATE=07-Oct-2010 14:12:58
		LINAC=A4
		MODALITY=X
		INPLANE_AXIS_DIR=TARGET_GUN
		CROSSPLANE_AXIS_DIR=LEFT_RIGHT
		DEPTH_AXIS_DIR=UP_DOWN
		ENERGY=6.00
		SSD=950.00
		WEDGE=None
		FIELD_INPLANE=100.00
		FIELD_CROSSPLANE=100.00
		FIELD_TYPE=RECTANGULAR
		GANTRY=0.00
		GANTRY_UPRIGHT_POSITION=0
		GANTRY_ROTATION=CW
		COLL_ANGLE=90.00
		COLL_OFFSET_INPLANE=0.00
		COLL_OFFSET_CROSSPLANE=0.00
		SCAN_DEVICE=STARCHECK
		ELECTROMETER=2D_ARRAY_INTERFACE
		DETECTOR=STARCHECK
		SCAN_CURVETYPE=CROSSPLANE_PROFILE
		SCAN_DEPTH=0.00
		SCAN_OFFAXIS_INPLANE=100.00
		SCAN_ANGLE=0.00
		SCAN_DIAGONAL=NOT_DIAGONAL
		MEAS_PRESET=TIME_PRESET
		MEAS_TIME=10.000
		MEAS_UNIT=GY
		PRESSURE=1013.25
		TEMPERATURE=20.00
		NORM_TEMPERATURE=20.00
		CORRECTION_FACTOR=1.0000
		CORRECTIONS=AIR_DENSITY_CORR;
		BEGIN_DATA
			-60.00		9.1962E-03
			-30.00		13.564E-03
			30.00		13.317E-03
			60.00		8.1756E-03
		END_DATA
	END_SCAN  6
	BEGIN_SCAN  7
		TASK_NAME=MODE_INTERVAL
		PROGRAM=BeamAdjust 1.2
		MEAS_DATE=07-Oct-2010 14:12:58
		LINAC=A4
		MODALITY=X
		INPLANE_AXIS_DIR=TARGET_GUN
		CROSSPLANE_AXIS_DIR=LEFT_RIGHT
		DEPTH_AXIS_DIR=UP_DOWN
		ENERGY=6.00
		SSD=950.00
		WEDGE=None
		FIELD_INPLANE=100.00
		FIELD_CROSSPLANE=100.00
		FIELD_TYPE=RECTANGULAR
		GANTRY=0.00
		GANTRY_UPRIGHT_POSITION=0
		GANTRY_ROTATION=CW
		COLL_ANGLE=90.00
		COLL_OFFSET_INPLANE=0.00
		COLL_OFFSET_CROSSPLANE=0.00
		SCAN_DEVICE=STARCHECK
		ELECTROMETER=2D_ARRAY_INTERFACE
		DETECTOR=STARCHECK
		SCAN_CURVETYPE=CROSSPLANE_PROFILE
		SCAN_DEPTH=0.00
		SCAN_OFFAXIS_INPLANE=130.00
		SCAN_ANGLE=0.00
		SCAN_DIAGONAL=NOT_DIAGONAL
		MEAS_PRESET=TIME_PRESET
		MEAS_TIME=10.000
		MEAS_UNIT=GY
		PRESSURE=1013.25
		TEMPERATURE=20.00
		NORM_TEMPERATURE=20.00
		CORRECTION_FACTOR=1.0000
		CORRECTIONS=AIR_DENSITY_CORR;
		BEGIN_DATA
			-130.00		1.8788E-03
			-80.00		4.3917E-03
			-40.00		7.4004E-03
			40.00		7.1019E-03
			80.00		3.9212E-03
			130.00		2.0727E-03
		END_DATA
	END_SCAN  7
	BEGIN_SCAN  8
		TASK_NAME=MODE_INTERVAL
		PROGRAM=BeamAdjust 1.2
		MEAS_DATE=07-Oct-2010 14:12:58
		LINAC=A4
		MODALITY=X
		INPLANE_AXIS_DIR=TARGET_GUN
		CROSSPLANE_AXIS_DIR=LEFT_RIGHT
		DEPTH_AXIS_DIR=UP_DOWN
		ENERGY=6.00
		SSD=950.00
		WEDGE=None
		FIELD_INPLANE=100.00
		FIELD_CROSSPLANE=100.00
		FIELD_TYPE=RECTANGULAR
		GANTRY=0.00
		GANTRY_UPRIGHT_POSITION=0
		GANTRY_ROTATION=CW
		COLL_ANGLE=90.00
		COLL_OFFSET_INPLANE=0.00
		COLL_OFFSET_CROSSPLANE=0.00
		SCAN_DEVICE=STARCHECK
		ELECTROMETER=2D_ARRAY_INTERFACE
		DETECTOR=STARCHECK
		SCAN_CURVETYPE=INPLANE_PROFILE
		SCAN_DEPTH=0.00
		SCAN_OFFAXIS_CROSSPLANE=-130.00
		SCAN_ANGLE=0.00
		SCAN_DIAGONAL=NOT_DIAGONAL
		MEAS_PRESET=TIME_PRESET
		MEAS_TIME=10.000
		MEAS_UNIT=GY
		PRESSURE=1013.25
		TEMPERATURE=20.00
		NORM_TEMPERATURE=20.00
		CORRECTION_FACTOR=1.0000
		CORRECTIONS=AIR_DENSITY_CORR;
		BEGIN_DATA
			-130.00		2.7139E-03
			-125.00		2.5810E-03
			-120.00		3.4313E-03
			-115.00		3.6408E-03
			-110.00		3.5406E-03
			-105.00		3.5919E-03
			-100.00		4.1774E-03
			-95.00		4.6115E-03
			-90.00		4.8316E-03
			-85.00		4.5273E-03
			-80.00		4.5902E-03
			-75.00		4.9851E-03
			-70.00		5.0157E-03
			-65.00		5.3068E-03
			-60.00		5.2839E-03
			-55.00		6.1514E-03
			-50.00		5.1416E-03
			-45.00		4.7769E-03
			-40.00		4.8931E-03
			-35.00		5.4736E-03
			-30.00		5.4577E-03
			-25.00		5.2988E-03
			-20.00		5.1714E-03
			-15.00		5.1580E-03
			-10.00		5.5443E-03
			-5.00		6.4053E-03
			0.00		5.7626E-03
			5.00		6.2697E-03
			10.00		5.7485E-03
			15.00		5.6369E-03
			20.00		6.3356E-03
			25.00		4.8469E-03
			30.00		5.5886E-03
			35.00		5.5955E-03
			40.00		4.8831E-03
			45.00		4.6462E-03
			50.00		4.6531E-03
			55.00		4.4170E-03
			60.00		4.6132E-03
			65.00		3.7336E-03
			70.00		3.6566E-03
			75.00		4.1189E-03
			80.00		3.8003E-03
			85.00		3.3099E-03
			90.00		3.3139E-03
			95.00		3.3730E-03
			100.00		3.3372E-03
			105.00		2.2947E-03
			110.00		2.3412E-03
			115.00		2.2148E-03
			120.00		2.3966E-03
			125.00		2.2439E-03
			130.00		1.8788E-03
		END_DATA
	END_SCAN  8
	BEGIN_SCAN  9
		TASK_NAME=MODE_INTERVAL
		PROGRAM=BeamAdjust 1.2
		MEAS_DATE=07-Oct-2010 14:12:58
		LINAC=A4
		MODALITY=X
		INPLANE_AXIS_DIR=TARGET_GUN
		CROSSPLANE_AXIS_DIR=LEFT_RIGHT
		DEPTH_AXIS_DIR=UP_DOWN
		ENERGY=6.00
		SSD=950.00
		WEDGE=None
		FIELD_INPLANE=100.00
		FIELD_CROSSPLANE=100.00
		FIELD_TYPE=RECTANGULAR
		GANTRY=0.00
		GANTRY_UPRIGHT_POSITION=0
		GANTRY_ROTATION=CW
		COLL_ANGLE=90.00
		COLL_OFFSET_INPLANE=0.00
		COLL_OFFSET_CROSSPLANE=0.00
		SCAN_DEVICE=STARCHECK
		ELECTROMETER=2D_ARRAY_INTERFACE
		DETECTOR=STARCHECK
		SCAN_CURVETYPE=INPLANE_PROFILE
		SCAN_DEPTH=0.00
		SCAN_OFFAXIS_CROSSPLANE=-100.00
		SCAN_ANGLE=0.00
		SCAN_DIAGONAL=NOT_DIAGONAL
		MEAS_PRESET=TIME_PRESET
		MEAS_TIME=10.000
		MEAS_UNIT=GY
		PRESSURE=1013.25
		TEMPERATURE=20.00
		NORM_TEMPERATURE=20.00
		CORRECTION_FACTOR=1.0000
		CORRECTIONS=AIR_DENSITY_CORR;
		BEGIN_DATA
			-60.00		8.7533E-03
			-30.00		10.707E-03
			30.00		10.082E-03
			60.00		7.7920E-03
		END_DATA
	END_SCAN  9
	BEGIN_SCAN  10
		TASK_NAME=MODE_INTERVAL
		PROGRAM=BeamAdjust 1.2
		MEAS_DATE=07-Oct-2010 14:12:58
		LINAC=A4
		MODALITY=X
		INPLANE_AXIS_DIR=TARGET_GUN
		CROSSPLANE_AXIS_DIR=LEFT_RIGHT
		DEPTH_AXIS_DIR=UP_DOWN
		ENERGY=6.00
		SSD=950.00
		WEDGE=None
		FIELD_INPLANE=100.00
		FIELD_CROSSPLANE=100.00
		FIELD_TYPE=RECTANGULAR
		GANTRY=0.00
		GANTRY_UPRIGHT_POSITION=0
		GANTRY_ROTATION=CW
		COLL_ANGLE=90.00
		COLL_OFFSET_INPLANE=0.00
		COLL_OFFSET_CROSSPLANE=0.00
		SCAN_DEVICE=STARCHECK
		ELECTROMETER=2D_ARRAY_INTERFACE
		DETECTOR=STARCHECK
		SCAN_CURVETYPE=INPLANE_PROFILE
		SCAN_DEPTH=0.00
		SCAN_OFFAXIS_CROSSPLANE=-50.00
		SCAN_ANGLE=0.00
		SCAN_DIAGONAL=NOT_DIAGONAL
		MEAS_PRESET=TIME_PRESET
		MEAS_TIME=10.000
		MEAS_UNIT=GY
		PRESSURE=1013.25
		TEMPERATURE=20.00
		NORM_TEMPERATURE=20.00
		CORRECTION_FACTOR=1.0000
		CORRECTIONS=AIR_DENSITY_CORR;
		BEGIN_DATA
			-30.00		399.97E-03
			-15.00		395.97E-03
			15.00		384.35E-03
			30.00		371.54E-03
		END_DATA
	END_SCAN  10
	BEGIN_SCAN  11
		TASK_NAME=MODE_INTERVAL
		PROGRAM=BeamAdjust 1.2
		MEAS_DATE=07-Oct-2010 14:12:58
		LINAC=A4
		MODALITY=X
		INPLANE_AXIS_DIR=TARGET_GUN
		CROSSPLANE_AXIS_DIR=LEFT_RIGHT
		DEPTH_AXIS_DIR=UP_DOWN
		ENERGY=6.00
		SSD=950.00
		WEDGE=None
		FIELD_INPLANE=100.00
		FIELD_CROSSPLANE=100.00
		FIELD_TYPE=RECTANGULAR
		GANTRY=0.00
		GANTRY_UPRIGHT_POSITION=0
		GANTRY_ROTATION=CW
		COLL_ANGLE=90.00
		COLL_OFFSET_INPLANE=0.00
		COLL_OFFSET_CROSSPLANE=0.00
		SCAN_DEVICE=STARCHECK
		ELECTROMETER=2D_ARRAY_INTERFACE
		DETECTOR=STARCHECK
		SCAN_CURVETYPE=INPLANE_PROFILE
		SCAN_DEPTH=0.00
		SCAN_OFFAXIS_CROSSPLANE=0.00
		SCAN_ANGLE=0.00
		SCAN_DIAGONAL=NOT_DIAGONAL
		MEAS_PRESET=TIME_PRESET
		MEAS_TIME=10.000
		MEAS_UNIT=GY
		PRESSURE=1013.25
		TEMPERATURE=20.00
		NORM_TEMPERATURE=20.00
		CORRECTION_FACTOR=1.0000
		CORRECTIONS=AIR_DENSITY_CORR;
		BEGIN_DATA
			-126.00		10.071E-03
			-123.00		9.3223E-03
			-120.00		10.745E-03
			-117.00		12.590E-03
			-114.00		13.404E-03
			-111.00		13.385E-03
			-108.00		14.538E-03
			-105.00		16.007E-03
			-102.00		18.310E-03
			-99.00		18.321E-03
			-96.00		19.959E-03
			-93.00		22.619E-03
			-90.00		24.145E-03
			-87.00		26.176E-03
			-84.00		28.475E-03
			-81.00		31.368E-03
			-78.00		34.486E-03
			-75.00		37.805E-03
			-72.00		42.135E-03
			-69.00		47.298E-03
			-66.00		55.119E-03
			-63.00		66.992E-03
			-60.00		91.846E-03
			-57.00		164.81E-03
			-54.00		390.49E-03
			-51.00		587.35E-03
			-48.00		632.96E-03
			-45.00		647.62E-03
			-42.00		655.13E-03
			-39.00		659.41E-03
			-36.00		662.36E-03
			-33.00		664.37E-03
			-30.00		667.09E-03
			-27.00		667.37E-03
			-24.00		666.85E-03
			-21.00		667.34E-03
			-18.00		673.59E-03
			-15.00		670.41E-03
			-12.00		669.92E-03
			-9.00		669.10E-03
			-6.00		666.83E-03
			0.00		669.46E-03
			6.00		673.30E-03
			9.00		670.68E-03
			12.00		668.27E-03
			15.00		666.60E-03
			18.00		662.84E-03
			21.00		662.84E-03
			24.00		659.36E-03
			27.00		659.66E-03
			30.00		653.84E-03
			33.00		648.99E-03
			36.00		642.97E-03
			39.00		621.82E-03
			42.00		571.74E-03
			45.00		351.51E-03
			48.00		150.48E-03
			51.00		87.513E-03
			54.00		64.086E-03
			57.00		53.429E-03
			60.00		46.744E-03
			63.00		41.322E-03
			66.00		37.394E-03
			69.00		33.437E-03
			72.00		31.103E-03
			75.00		27.819E-03
			78.00		25.041E-03
			81.00		23.007E-03
			84.00		21.450E-03
			87.00		20.018E-03
			90.00		19.058E-03
			93.00		16.998E-03
			96.00		15.638E-03
			99.00		14.601E-03
			102.00		13.467E-03
			105.00		12.525E-03
			108.00		11.955E-03
			111.00		10.761E-03
			114.00		10.906E-03
			117.00		9.9106E-03
			120.00		9.4258E-03
			123.00		8.3279E-03
			126.00		7.1232E-03
		END_DATA
	END_SCAN  11
	BEGIN_SCAN  12
		TASK_NAME=MODE_INTERVAL
		PROGRAM=BeamAdjust 1.2
		MEAS_DATE=07-Oct-2010 14:12:58
		LINAC=A4
		MODALITY=X
		INPLANE_AXIS_DIR=TARGET_GUN
		CROSSPLANE_AXIS_DIR=LEFT_RIGHT
		DEPTH_AXIS_DIR=UP_DOWN
		ENERGY=6.00
		SSD=950.00
		WEDGE=None
		FIELD_INPLANE=100.00
		FIELD_CROSSPLANE=100.00
		FIELD_TYPE=RECTANGULAR
		GANTRY=0.00
		GANTRY_UPRIGHT_POSITION=0
		GANTRY_ROTATION=CW
		COLL_ANGLE=90.00
		COLL_OFFSET_INPLANE=0.00
		COLL_OFFSET_CROSSPLANE=0.00
		SCAN_DEVICE=STARCHECK
		ELECTROMETER=2D_ARRAY_INTERFACE
		DETECTOR=STARCHECK
		SCAN_CURVETYPE=INPLANE_PROFILE
		SCAN_DEPTH=0.00
		SCAN_OFFAXIS_CROSSPLANE=50.00
		SCAN_ANGLE=0.00
		SCAN_DIAGONAL=NOT_DIAGONAL
		MEAS_PRESET=TIME_PRESET
		MEAS_TIME=10.000
		MEAS_UNIT=GY
		PRESSURE=1013.25
		TEMPERATURE=20.00
		NORM_TEMPERATURE=20.00
		CORRECTION_FACTOR=1.0000
		CORRECTIONS=AIR_DENSITY_CORR;
		BEGIN_DATA
			-30.00		326.25E-03
			-15.00		334.57E-03
			15.00		341.45E-03
			30.00		340.65E-03
		END_DATA
	END_SCAN  12
	BEGIN_SCAN  13
		TASK_NAME=MODE_INTERVAL
		PROGRAM=BeamAdjust 1.2
		MEAS_DATE=07-Oct-2010 14:12:58
		LINAC=A4
		MODALITY=X
		INPLANE_AXIS_DIR=TARGET_GUN
		CROSSPLANE_AXIS_DIR=LEFT_RIGHT
		DEPTH_AXIS_DIR=UP_DOWN
		ENERGY=6.00
		SSD=950.00
		WEDGE=None
		FIELD_INPLANE=100.00
		FIELD_CROSSPLANE=100.00
		FIELD_TYPE=RECTANGULAR
		GANTRY=0.00
		GANTRY_UPRIGHT_POSITION=0
		GANTRY_ROTATION=CW
		COLL_ANGLE=90.00
		COLL_OFFSET_INPLANE=0.00
		COLL_OFFSET_CROSSPLANE=0.00
		SCAN_DEVICE=STARCHECK
		ELECTROMETER=2D_ARRAY_INTERFACE
		DETECTOR=STARCHECK
		SCAN_CURVETYPE=INPLANE_PROFILE
		SCAN_DEPTH=0.00
		SCAN_OFFAXIS_CROSSPLANE=100.00
		SCAN_ANGLE=0.00
		SCAN_DIAGONAL=NOT_DIAGONAL
		MEAS_PRESET=TIME_PRESET
		MEAS_TIME=10.000
		MEAS_UNIT=GY
		PRESSURE=1013.25
		TEMPERATURE=20.00
		NORM_TEMPERATURE=20.00
		CORRECTION_FACTOR=1.0000
		CORRECTIONS=AIR_DENSITY_CORR;
		BEGIN_DATA
			-60.00		8.2164E-03
			-30.00		10.449E-03
			30.00		10.212E-03
			60.00		7.7840E-03
		END_DATA
	END_SCAN  13
	BEGIN_SCAN  14
		TASK_NAME=MODE_INTERVAL
		PROGRAM=BeamAdjust 1.2
		MEAS_DATE=07-Oct-2010 14:12:58
		LINAC=A4
		MODALITY=X
		INPLANE_AXIS_DIR=TARGET_GUN
		CROSSPLANE_AXIS_DIR=LEFT_RIGHT
		DEPTH_AXIS_DIR=UP_DOWN
		ENERGY=6.00
		SSD=950.00
		WEDGE=None
		FIELD_INPLANE=100.00
		FIELD_CROSSPLANE=100.00
		FIELD_TYPE=RECTANGULAR
		GANTRY=0.00
		GANTRY_UPRIGHT_POSITION=0
		GANTRY_ROTATION=CW
		COLL_ANGLE=90.00
		COLL_OFFSET_INPLANE=0.00
		COLL_OFFSET_CROSSPLANE=0.00
		SCAN_DEVICE=STARCHECK
		ELECTROMETER=2D_ARRAY_INTERFACE
		DETECTOR=STARCHECK
		SCAN_CURVETYPE=INPLANE_PROFILE
		SCAN_DEPTH=0.00
		SCAN_OFFAXIS_CROSSPLANE=130.00
		SCAN_ANGLE=0.00
		SCAN_DIAGONAL=NOT_DIAGONAL
		MEAS_PRESET=TIME_PRESET
		MEAS_TIME=10.000
		MEAS_UNIT=GY
		PRESSURE=1013.25
		TEMPERATURE=20.00
		NORM_TEMPERATURE=20.00
		CORRECTION_FACTOR=1.0000
		CORRECTIONS=AIR_DENSITY_CORR;
		BEGIN_DATA
			-130.00		2.1484E-03
			-125.00		3.0360E-03
			-120.00		2.6515E-03
			-115.00		2.3714E-03
			-110.00		2.7060E-03
			-105.00		3.5979E-03
			-100.00		3.5737E-03
			-95.00		3.1711E-03
			-90.00		2.6495E-03
			-85.00		3.7915E-03
			-80.00		3.9099E-03
			-75.00		3.9572E-03
			-70.00		4.1017E-03
			-65.00		3.9421E-03
			-60.00		4.8818E-03
			-55.00		4.6528E-03
			-50.00		4.2472E-03
			-45.00		4.6692E-03
			-40.00		4.8580E-03
			-35.00		5.6071E-03
			-30.00		5.6676E-03
			-25.00		5.2311E-03
			-20.00		5.3147E-03
			-15.00		5.3487E-03
			-10.00		4.9365E-03
			-5.00		6.0510E-03
			0.00		5.8774E-03
			5.00		5.5567E-03
			10.00		5.7134E-03
			15.00		5.3223E-03
			20.00		5.3912E-03
			25.00		5.4272E-03
			30.00		4.9598E-03
			35.00		5.2464E-03
			40.00		5.6077E-03
			45.00		4.8010E-03
			50.00		4.5095E-03
			55.00		4.7976E-03
			60.00		4.5677E-03
			65.00		4.0447E-03
			70.00		3.7726E-03
			75.00		4.2857E-03
			80.00		3.9700E-03
			85.00		3.6436E-03
			90.00		3.4342E-03
			95.00		3.2539E-03
			100.00		3.5393E-03
			105.00		2.5862E-03
			110.00		2.2526E-03
			115.00		2.7697E-03
			120.00		2.5516E-03
			125.00		2.2196E-03
			130.00		2.0727E-03
		END_DATA
	END_SCAN  14
	BEGIN_SCAN  15
		TASK_NAME=MODE_INTERVAL
		PROGRAM=BeamAdjust 1.2
		MEAS_DATE=07-Oct-2010 14:12:58
		LINAC=A4
		MODALITY=X
		INPLANE_AXIS_DIR=TARGET_GUN
		CROSSPLANE_AXIS_DIR=LEFT_RIGHT
		DEPTH_AXIS_DIR=UP_DOWN
		ENERGY=6.00
		SSD=950.00
		WEDGE=None
		FIELD_INPLANE=100.00
		FIELD_CROSSPLANE=100.00
		FIELD_TYPE=RECTANGULAR
		GANTRY=0.00
		GANTRY_UPRIGHT_POSITION=0
		GANTRY_ROTATION=CW
		COLL_ANGLE=90.00
		COLL_OFFSET_INPLANE=0.00
		COLL_OFFSET_CROSSPLANE=0.00
		SCAN_DEVICE=STARCHECK
		ELECTROMETER=2D_ARRAY_INTERFACE
		DETECTOR=STARCHECK
		SCAN_CURVETYPE=INPLANE_PROFILE
		SCAN_DEPTH=0.00
		SCAN_OFFAXIS_CROSSPLANE=0.00
		SCAN_ANGLE=0.00
		SCAN_DIAGONAL=FIRST_DIAGONAL
		MEAS_PRESET=TIME_PRESET
		MEAS_TIME=10.000
		MEAS_UNIT=GY
		PRESSURE=1013.25
		TEMPERATURE=20.00
		NORM_TEMPERATURE=20.00
		CORRECTION_FACTOR=1.0000
		CORRECTIONS=AIR_DENSITY_CORR;
		BEGIN_DATA
			-172.40		2.7444E-03
			-169.40		3.1794E-03
			-166.40		4.0342E-03
			-163.40		3.6599E-03
			-160.40		3.9177E-03
			-157.40		4.2182E-03
			-154.40		4.3016E-03
			-151.40		4.2615E-03
			-148.40		5.2521E-03
			-145.40		5.4116E-03
			-142.40		5.9639E-03
			-139.40		6.3001E-03
			-136.40		6.5665E-03
			-133.40		7.0714E-03
			-130.40		7.6582E-03
			-127.40		7.9817E-03
			-124.40		8.7305E-03
			-121.40		9.3136E-03
			-118.40		10.278E-03
			-115.40		11.370E-03
			-112.40		12.282E-03
			-109.40		13.714E-03
			-106.40		15.113E-03
			-103.40		15.254E-03
			-100.40		17.094E-03
			-97.40		19.593E-03
			-94.40		21.563E-03
			-91.40		24.067E-03
			-88.40		27.505E-03
			-85.40		31.355E-03
			-82.40		37.496E-03
			-79.40		48.481E-03
			-76.40		76.998E-03
			-73.40		184.50E-03
			-70.40		369.53E-03
			-67.40		519.16E-03
			-64.40		593.88E-03
			-61.40		621.30E-03
			-58.40		634.30E-03
			-55.40		642.71E-03
			-52.40		647.95E-03
			-49.40		652.40E-03
			-46.40		654.43E-03
			-43.40		656.05E-03
			-40.40		658.69E-03
			-37.40		663.02E-03
			-34.40		662.70E-03
			-31.40		664.00E-03
			-28.40		662.24E-03
			-25.40		665.42E-03
			-22.40		666.85E-03
			-19.40		667.23E-03
			-16.40		669.84E-03
			-13.40		671.09E-03
			0.00		669.46E-03
			13.40		670.50E-03
			16.40		666.70E-03
			19.40		666.52E-03
			22.40		665.22E-03
			25.40		664.14E-03
			28.40		663.01E-03
			31.40		660.00E-03
			34.40		656.46E-03
			37.40		658.06E-03
			40.40		654.74E-03
			43.40		651.57E-03
			46.40		647.38E-03
			49.40		638.62E-03
			52.40		628.40E-03
			55.40		602.28E-03
			58.40		544.92E-03
			61.40		422.28E-03
			64.40		260.99E-03
			67.40		124.72E-03
			70.40		63.884E-03
			73.40		44.519E-03
			76.40		35.683E-03
			79.40		30.832E-03
			82.40		27.093E-03
			85.40		24.243E-03
			88.40		21.599E-03
			91.40		19.230E-03
			94.40		17.554E-03
			97.40		15.981E-03
			100.40		14.367E-03
			103.40		13.670E-03
			106.40		12.290E-03
			109.40		11.264E-03
			112.40		9.5360E-03
			115.40		9.3170E-03
			118.40		8.5500E-03
			121.40		7.8602E-03
			124.40		7.4253E-03
			127.40		7.6304E-03
			130.40		6.8364E-03
			133.40		5.7441E-03
			136.40		4.8686E-03
			139.40		4.5938E-03
			142.40		4.4680E-03
			145.40		4.2735E-03
			148.40		4.4476E-03
			151.40		3.4882E-03
			154.40		3.6767E-03
			157.40		3.4198E-03
			160.40		2.6417E-03
			163.40		2.4383E-03
			166.40		2.5583E-03
			169.40		2.6504E-03
			172.40		2.5862E-03
		END_DATA
	END_SCAN  15
	BEGIN_SCAN  16
		TASK_NAME=MODE_INTERVAL
		PROGRAM=BeamAdjust 1.2
		MEAS_DATE=07-Oct-2010 14:12:58
		LINAC=A4
		MODALITY=X
		INPLANE_AXIS_DIR=GUN_TARGET
		CROSSPLANE_AXIS_DIR=LEFT_RIGHT
		DEPTH_AXIS_DIR=UP_DOWN
		ENERGY=6.00
		SSD=950.00
		WEDGE=None
		FIELD_INPLANE=100.00
		FIELD_CROSSPLANE=100.00
		FIELD_TYPE=RECTANGULAR
		GANTRY=0.00
		GANTRY_UPRIGHT_POSITION=0
		GANTRY_ROTATION=CW
		COLL_ANGLE=90.00
		COLL_OFFSET_INPLANE=0.00
		COLL_OFFSET_CROSSPLANE=0.00
		SCAN_DEVICE=STARCHECK
		ELECTROMETER=2D_ARRAY_INTERFACE
		DETECTOR=STARCHECK
		SCAN_CURVETYPE=INPLANE_PROFILE
		SCAN_DEPTH=0.00
		SCAN_OFFAXIS_CROSSPLANE=0.00
		SCAN_ANGLE=0.00
		SCAN_DIAGONAL=SECOND_DIAGONAL
		MEAS_PRESET=TIME_PRESET
		MEAS_TIME=10.000
		MEAS_UNIT=GY
		PRESSURE=1013.25
		TEMPERATURE=20.00
		NORM_TEMPERATURE=20.00
		CORRECTION_FACTOR=1.0000
		CORRECTIONS=AIR_DENSITY_CORR;
		BEGIN_DATA
			-172.40		2.7685E-03
			-169.40		3.0698E-03
			-166.40		3.0336E-03
			-163.40		2.9719E-03
			-160.40		3.6416E-03
			-157.40		3.9019E-03
			-154.40		4.2361E-03
			-151.40		4.2694E-03
			-148.40		4.6630E-03
			-145.40		4.7990E-03
			-142.40		5.6168E-03
			-139.40		5.6715E-03
			-136.40		5.9408E-03
			-133.40		7.0093E-03
			-130.40		7.2121E-03
			-127.40		8.0961E-03
			-124.40		8.7709E-03
			-121.40		9.6114E-03
			-118.40		10.755E-03
			-115.40		10.378E-03
			-112.40		11.204E-03
			-109.40		12.939E-03
			-106.40		14.391E-03
			-103.40		15.630E-03
			-100.40		17.186E-03
			-97.40		18.626E-03
			-94.40		20.609E-03
			-91.40		23.305E-03
			-88.40		25.616E-03
			-85.40		29.310E-03
			-82.40		34.794E-03
			-79.40		43.754E-03
			-76.40		63.839E-03
			-73.40		133.19E-03
			-70.40		299.69E-03
			-67.40		467.96E-03
			-64.40		576.20E-03
			-61.40		617.48E-03
			-58.40		636.84E-03
			-55.40		644.94E-03
			-52.40		654.62E-03
			-49.40		657.91E-03
			-46.40		660.27E-03
			-43.40		662.71E-03
			-40.40		664.47E-03
			-37.40		667.52E-03
			-34.40		666.61E-03
			-31.40		666.65E-03
			-28.40		668.73E-03
			-25.40		667.74E-03
			-22.40		666.04E-03
			-19.40		669.57E-03
			-16.40		671.22E-03
			-13.40		673.02E-03
			0.00		669.46E-03
			13.40		669.66E-03
			16.40		666.67E-03
			19.40		663.99E-03
			22.40		662.02E-03
			25.40		661.84E-03
			28.40		660.08E-03
			31.40		658.36E-03
			34.40		654.44E-03
			37.40		653.34E-03
			40.40		651.24E-03
			43.40		648.59E-03
			46.40		645.46E-03
			49.40		638.51E-03
			52.40		625.33E-03
			55.40		604.91E-03
			58.40		557.90E-03
			61.40		446.38E-03
			64.40		286.35E-03
			67.40		138.07E-03
			70.40		67.701E-03
			73.40		45.893E-03
			76.40		36.162E-03
			79.40		31.131E-03
			82.40		27.768E-03
			85.40		24.178E-03
			88.40		21.772E-03
			91.40		20.277E-03
			94.40		18.246E-03
			97.40		16.488E-03
			100.40		13.888E-03
			103.40		13.055E-03
			106.40		12.564E-03
			109.40		11.198E-03
			112.40		10.428E-03
			115.40		10.101E-03
			118.40		8.8313E-03
			121.40		7.8362E-03
			124.40		7.2898E-03
			127.40		6.8045E-03
			130.40		7.1621E-03
			133.40		6.2581E-03
			136.40		5.2152E-03
			139.40		5.6500E-03
			142.40		5.4443E-03
			145.40		5.2993E-03
			148.40		4.3434E-03
			151.40		3.8047E-03
			154.40		3.9853E-03
			157.40		4.3926E-03
			160.40		3.4925E-03
			163.40		3.5220E-03
			166.40		3.4748E-03
			169.40		2.7982E-03
			172.40		2.3027E-03
		END_DATA
	END_SCAN  16
END_SCAN_DATA
