BEGIN_SCAN_DATA
	FORMAT=CC-Export V1.9                  
	FILE_CREATION_DATE=07-Oct-2010 14:12:25
	LAST_MODIFIED=07-Oct-2010 14:12:25
	BEGIN_SCAN  1
		TASK_NAME=MODE_INTERVAL
		PROGRAM=BeamAdjust 1.2
		MEAS_DATE=07-Oct-2010 14:12:25
		LINAC=A4
		MODALITY=X
		INPLANE_AXIS_DIR=TARGET_GUN
		CROSSPLANE_AXIS_DIR=LEFT_RIGHT
		DEPTH_AXIS_DIR=UP_DOWN
		ENERGY=6.00
		SSD=950.00
		WEDGE=None
		FIELD_INPLANE=100.00
		FIELD_CROSSPLANE=100.00
		FIELD_TYPE=RECTANGULAR
		GANTRY=0.00
		GANTRY_UPRIGHT_POSITION=0
		GANTRY_ROTATION=CW
		COLL_ANGLE=90.00
		COLL_OFFSET_INPLANE=0.00
		COLL_OFFSET_CROSSPLANE=0.00
		SCAN_DEVICE=STARCHECK
		ELECTROMETER=2D_ARRAY_INTERFACE
		DETECTOR=STARCHECK
		SCAN_CURVETYPE=CROSSPLANE_PROFILE
		SCAN_DEPTH=0.00
		SCAN_OFFAXIS_INPLANE=-130.00
		SCAN_ANGLE=0.00
		SCAN_DIAGONAL=NOT_DIAGONAL
		MEAS_PRESET=TIME_PRESET
		MEAS_TIME=10.000
		MEAS_UNIT=GY
		PRESSURE=1013.25
		TEMPERATURE=20.00
		NORM_TEMPERATURE=20.00
		CORRECTION_FACTOR=1.0000
		CORRECTIONS=AIR_DENSITY_CORR;
		BEGIN_DATA
			-130.00		2.9931E-03
			-80.00		4.8694E-03
			-40.00		7.5172E-03
			40.00		8.2500E-03
			80.00		4.2276E-03
			130.00		1.8970E-03
		END_DATA
	END_SCAN  1
	BEGIN_SCAN  2
		TASK_NAME=MODE_INTERVAL
		PROGRAM=BeamAdjust 1.2
		MEAS_DATE=07-Oct-2010 14:12:25
		LINAC=A4
		MODALITY=X
		INPLANE_AXIS_DIR=TARGET_GUN
		CROSSPLANE_AXIS_DIR=LEFT_RIGHT
		DEPTH_AXIS_DIR=UP_DOWN
		ENERGY=6.00
		SSD=950.00
		WEDGE=None
		FIELD_INPLANE=100.00
		FIELD_CROSSPLANE=100.00
		FIELD_TYPE=RECTANGULAR
		GANTRY=0.00
		GANTRY_UPRIGHT_POSITION=0
		GANTRY_ROTATION=CW
		COLL_ANGLE=90.00
		COLL_OFFSET_INPLANE=0.00
		COLL_OFFSET_CROSSPLANE=0.00
		SCAN_DEVICE=STARCHECK
		ELECTROMETER=2D_ARRAY_INTERFACE
		DETECTOR=STARCHECK
		SCAN_CURVETYPE=CROSSPLANE_PROFILE
		SCAN_DEPTH=0.00
		SCAN_OFFAXIS_INPLANE=-100.00
		SCAN_ANGLE=0.00
		SCAN_DIAGONAL=NOT_DIAGONAL
		MEAS_PRESET=TIME_PRESET
		MEAS_TIME=10.000
		MEAS_UNIT=GY
		PRESSURE=1013.25
		TEMPERATURE=20.00
		NORM_TEMPERATURE=20.00
		CORRECTION_FACTOR=1.0000
		CORRECTIONS=AIR_DENSITY_CORR;
		BEGIN_DATA
			-60.00		11.157E-03
			-30.00		16.100E-03
			30.00		16.412E-03
			60.00		11.049E-03
		END_DATA
	END_SCAN  2
	BEGIN_SCAN  3
		TASK_NAME=MODE_INTERVAL
		PROGRAM=BeamAdjust 1.2
		MEAS_DATE=07-Oct-2010 14:12:25
		LINAC=A4
		MODALITY=X
		INPLANE_AXIS_DIR=TARGET_GUN
		CROSSPLANE_AXIS_DIR=LEFT_RIGHT
		DEPTH_AXIS_DIR=UP_DOWN
		ENERGY=6.00
		SSD=950.00
		WEDGE=None
		FIELD_INPLANE=100.00
		FIELD_CROSSPLANE=100.00
		FIELD_TYPE=RECTANGULAR
		GANTRY=0.00
		GANTRY_UPRIGHT_POSITION=0
		GANTRY_ROTATION=CW
		COLL_ANGLE=90.00
		COLL_OFFSET_INPLANE=0.00
		COLL_OFFSET_CROSSPLANE=0.00
		SCAN_DEVICE=STARCHECK
		ELECTROMETER=2D_ARRAY_INTERFACE
		DETECTOR=STARCHECK
		SCAN_CURVETYPE=CROSSPLANE_PROFILE
		SCAN_DEPTH=0.00
		SCAN_OFFAXIS_INPLANE=-50.00
		SCAN_ANGLE=0.00
		SCAN_DIAGONAL=NOT_DIAGONAL
		MEAS_PRESET=TIME_PRESET
		MEAS_TIME=10.000
		MEAS_UNIT=GY
		PRESSURE=1013.25
		TEMPERATURE=20.00
		NORM_TEMPERATURE=20.00
		CORRECTION_FACTOR=1.0000
		CORRECTIONS=AIR_DENSITY_CORR;
		BEGIN_DATA
			-30.00		621.15E-03
			-15.00		614.83E-03
			15.00		625.76E-03
			30.00		623.50E-03
		END_DATA
	END_SCAN  3
	BEGIN_SCAN  4
		TASK_NAME=MODE_INTERVAL
		PROGRAM=BeamAdjust 1.2
		MEAS_DATE=07-Oct-2010 14:12:25
		LINAC=A4
		MODALITY=X
		INPLANE_AXIS_DIR=TARGET_GUN
		CROSSPLANE_AXIS_DIR=LEFT_RIGHT
		DEPTH_AXIS_DIR=UP_DOWN
		ENERGY=6.00
		SSD=950.00
		WEDGE=None
		FIELD_INPLANE=100.00
		FIELD_CROSSPLANE=100.00
		FIELD_TYPE=RECTANGULAR
		GANTRY=0.00
		GANTRY_UPRIGHT_POSITION=0
		GANTRY_ROTATION=CW
		COLL_ANGLE=90.00
		COLL_OFFSET_INPLANE=0.00
		COLL_OFFSET_CROSSPLANE=0.00
		SCAN_DEVICE=STARCHECK
		ELECTROMETER=2D_ARRAY_INTERFACE
		DETECTOR=STARCHECK
		SCAN_CURVETYPE=CROSSPLANE_PROFILE
		SCAN_DEPTH=0.00
		SCAN_OFFAXIS_INPLANE=0.00
		SCAN_ANGLE=0.00
		SCAN_DIAGONAL=NOT_DIAGONAL
		MEAS_PRESET=TIME_PRESET
		MEAS_TIME=10.000
		MEAS_UNIT=GY
		PRESSURE=1013.25
		TEMPERATURE=20.00
		NORM_TEMPERATURE=20.00
		CORRECTION_FACTOR=1.0000
		CORRECTIONS=AIR_DENSITY_CORR;
		BEGIN_DATA
			-126.00		6.6379E-03
			-123.00		7.5772E-03
			-120.00		7.6994E-03
			-117.00		8.4340E-03
			-114.00		9.0780E-03
			-111.00		9.4329E-03
			-108.00		10.591E-03
			-105.00		10.884E-03
			-102.00		11.935E-03
			-99.00		13.043E-03
			-96.00		13.844E-03
			-93.00		15.013E-03
			-90.00		16.512E-03
			-87.00		18.273E-03
			-84.00		20.436E-03
			-81.00		21.566E-03
			-78.00		23.790E-03
			-75.00		26.941E-03
			-72.00		29.804E-03
			-69.00		34.026E-03
			-66.00		39.741E-03
			-63.00		45.176E-03
			-60.00		55.135E-03
			-57.00		72.741E-03
			-54.00		114.53E-03
			-51.00		293.20E-03
			-48.00		555.96E-03
			-45.00		616.93E-03
			-42.00		635.85E-03
			-39.00		648.60E-03
			-36.00		654.78E-03
			-33.00		654.98E-03
			-30.00		656.68E-03
			-27.00		659.09E-03
			-24.00		661.93E-03
			-21.00		661.18E-03
			-18.00		666.75E-03
			-15.00		667.10E-03
			-12.00		666.89E-03
			-9.00		669.74E-03
			-6.00		669.15E-03
			0.00		668.95E-03
			6.00		671.96E-03
			9.00		670.55E-03
			12.00		667.37E-03
			15.00		666.47E-03
			18.00		665.92E-03
			21.00		664.20E-03
			24.00		660.70E-03
			27.00		665.02E-03
			30.00		663.24E-03
			33.00		660.79E-03
			36.00		656.38E-03
			39.00		650.50E-03
			42.00		639.78E-03
			45.00		614.91E-03
			48.00		524.04E-03
			51.00		229.81E-03
			54.00		101.43E-03
			57.00		68.154E-03
			60.00		52.689E-03
			63.00		44.024E-03
			66.00		37.916E-03
			69.00		32.785E-03
			72.00		29.387E-03
			75.00		26.237E-03
			78.00		23.556E-03
			81.00		21.332E-03
			84.00		19.457E-03
			87.00		17.604E-03
			90.00		16.467E-03
			93.00		14.633E-03
			96.00		13.303E-03
			99.00		12.789E-03
			102.00		11.562E-03
			105.00		10.394E-03
			108.00		10.736E-03
			111.00		9.0864E-03
			114.00		8.5565E-03
			117.00		8.0183E-03
			120.00		6.9874E-03
			123.00		6.8655E-03
			126.00		7.0546E-03
		END_DATA
	END_SCAN  4
	BEGIN_SCAN  5
		TASK_NAME=MODE_INTERVAL
		PROGRAM=BeamAdjust 1.2
		MEAS_DATE=07-Oct-2010 14:12:25
		LINAC=A4
		MODALITY=X
		INPLANE_AXIS_DIR=TARGET_GUN
		CROSSPLANE_AXIS_DIR=LEFT_RIGHT
		DEPTH_AXIS_DIR=UP_DOWN
		ENERGY=6.00
		SSD=950.00
		WEDGE=None
		FIELD_INPLANE=100.00
		FIELD_CROSSPLANE=100.00
		FIELD_TYPE=RECTANGULAR
		GANTRY=0.00
		GANTRY_UPRIGHT_POSITION=0
		GANTRY_ROTATION=CW
		COLL_ANGLE=90.00
		COLL_OFFSET_INPLANE=0.00
		COLL_OFFSET_CROSSPLANE=0.00
		SCAN_DEVICE=STARCHECK
		ELECTROMETER=2D_ARRAY_INTERFACE
		DETECTOR=STARCHECK
		SCAN_CURVETYPE=CROSSPLANE_PROFILE
		SCAN_DEPTH=0.00
		SCAN_OFFAXIS_INPLANE=50.00
		SCAN_ANGLE=0.00
		SCAN_DIAGONAL=NOT_DIAGONAL
		MEAS_PRESET=TIME_PRESET
		MEAS_TIME=10.000
		MEAS_UNIT=GY
		PRESSURE=1013.25
		TEMPERATURE=20.00
		NORM_TEMPERATURE=20.00
		CORRECTION_FACTOR=1.0000
		CORRECTIONS=AIR_DENSITY_CORR;
		BEGIN_DATA
			-30.00		88.187E-03
			-15.00		90.944E-03
			15.00		85.541E-03
			30.00		85.777E-03
		END_DATA
	END_SCAN  5
	BEGIN_SCAN  6
		TASK_NAME=MODE_INTERVAL
		PROGRAM=BeamAdjust 1.2
		MEAS_DATE=07-Oct-2010 14:12:25
		LINAC=A4
		MODALITY=X
		INPLANE_AXIS_DIR=TARGET_GUN
		CROSSPLANE_AXIS_DIR=LEFT_RIGHT
		DEPTH_AXIS_DIR=UP_DOWN
		ENERGY=6.00
		SSD=950.00
		WEDGE=None
		FIELD_INPLANE=100.00
		FIELD_CROSSPLANE=100.00
		FIELD_TYPE=RECTANGULAR
		GANTRY=0.00
		GANTRY_UPRIGHT_POSITION=0
		GANTRY_ROTATION=CW
		COLL_ANGLE=90.00
		COLL_OFFSET_INPLANE=0.00
		COLL_OFFSET_CROSSPLANE=0.00
		SCAN_DEVICE=STARCHECK
		ELECTROMETER=2D_ARRAY_INTERFACE
		DETECTOR=STARCHECK
		SCAN_CURVETYPE=CROSSPLANE_PROFILE
		SCAN_DEPTH=0.00
		SCAN_OFFAXIS_INPLANE=100.00
		SCAN_ANGLE=0.00
		SCAN_DIAGONAL=NOT_DIAGONAL
		MEAS_PRESET=TIME_PRESET
		MEAS_TIME=10.000
		MEAS_UNIT=GY
		PRESSURE=1013.25
		TEMPERATURE=20.00
		NORM_TEMPERATURE=20.00
		CORRECTION_FACTOR=1.0000
		CORRECTIONS=AIR_DENSITY_CORR;
		BEGIN_DATA
			-60.00		9.3812E-03
			-30.00		13.591E-03
			30.00		13.161E-03
			60.00		8.4690E-03
		END_DATA
	END_SCAN  6
	BEGIN_SCAN  7
		TASK_NAME=MODE_INTERVAL
		PROGRAM=BeamAdjust 1.2
		MEAS_DATE=07-Oct-2010 14:12:25
		LINAC=A4
		MODALITY=X
		INPLANE_AXIS_DIR=TARGET_GUN
		CROSSPLANE_AXIS_DIR=LEFT_RIGHT
		DEPTH_AXIS_DIR=UP_DOWN
		ENERGY=6.00
		SSD=950.00
		WEDGE=None
		FIELD_INPLANE=100.00
		FIELD_CROSSPLANE=100.00
		FIELD_TYPE=RECTANGULAR
		GANTRY=0.00
		GANTRY_UPRIGHT_POSITION=0
		GANTRY_ROTATION=CW
		COLL_ANGLE=90.00
		COLL_OFFSET_INPLANE=0.00
		COLL_OFFSET_CROSSPLANE=0.00
		SCAN_DEVICE=STARCHECK
		ELECTROMETER=2D_ARRAY_INTERFACE
		DETECTOR=STARCHECK
		SCAN_CURVETYPE=CROSSPLANE_PROFILE
		SCAN_DEPTH=0.00
		SCAN_OFFAXIS_INPLANE=130.00
		SCAN_ANGLE=0.00
		SCAN_DIAGONAL=NOT_DIAGONAL
		MEAS_PRESET=TIME_PRESET
		MEAS_TIME=10.000
		MEAS_UNIT=GY
		PRESSURE=1013.25
		TEMPERATURE=20.00
		NORM_TEMPERATURE=20.00
		CORRECTION_FACTOR=1.0000
		CORRECTIONS=AIR_DENSITY_CORR;
		BEGIN_DATA
			-130.00		1.6343E-03
			-80.00		4.0928E-03
			-40.00		6.7584E-03
			40.00		6.7387E-03
			80.00		4.0417E-03
			130.00		1.6897E-03
		END_DATA
	END_SCAN  7
	BEGIN_SCAN  8
		TASK_NAME=MODE_INTERVAL
		PROGRAM=BeamAdjust 1.2
		MEAS_DATE=07-Oct-2010 14:12:25
		LINAC=A4
		MODALITY=X
		INPLANE_AXIS_DIR=TARGET_GUN
		CROSSPLANE_AXIS_DIR=LEFT_RIGHT
		DEPTH_AXIS_DIR=UP_DOWN
		ENERGY=6.00
		SSD=950.00
		WEDGE=None
		FIELD_INPLANE=100.00
		FIELD_CROSSPLANE=100.00
		FIELD_TYPE=RECTANGULAR
		GANTRY=0.00
		GANTRY_UPRIGHT_POSITION=0
		GANTRY_ROTATION=CW
		COLL_ANGLE=90.00
		COLL_OFFSET_INPLANE=0.00
		COLL_OFFSET_CROSSPLANE=0.00
		SCAN_DEVICE=STARCHECK
		ELECTROMETER=2D_ARRAY_INTERFACE
		DETECTOR=STARCHECK
		SCAN_CURVETYPE=INPLANE_PROFILE
		SCAN_DEPTH=0.00
		SCAN_OFFAXIS_CROSSPLANE=-130.00
		SCAN_ANGLE=0.00
		SCAN_DIAGONAL=NOT_DIAGONAL
		MEAS_PRESET=TIME_PRESET
		MEAS_TIME=10.000
		MEAS_UNIT=GY
		PRESSURE=1013.25
		TEMPERATURE=20.00
		NORM_TEMPERATURE=20.00
		CORRECTION_FACTOR=1.0000
		CORRECTIONS=AIR_DENSITY_CORR;
		BEGIN_DATA
			-130.00		2.9931E-03
			-125.00		3.3965E-03
			-120.00		3.1586E-03
			-115.00		3.4145E-03
			-110.00		3.3974E-03
			-105.00		3.8807E-03
			-100.00		4.1640E-03
			-95.00		4.6011E-03
			-90.00		4.8983E-03
			-85.00		4.5140E-03
			-80.00		4.5071E-03
			-75.00		5.1001E-03
			-70.00		5.0231E-03
			-65.00		5.1425E-03
			-60.00		5.4061E-03
			-55.00		6.7921E-03
			-50.00		4.5517E-03
			-45.00		4.8155E-03
			-40.00		4.9389E-03
			-35.00		5.7605E-03
			-30.00		5.3817E-03
			-25.00		5.0126E-03
			-20.00		5.3284E-03
			-15.00		5.2097E-03
			-10.00		5.4293E-03
			-5.00		6.5205E-03
			0.00		5.9260E-03
			5.00		6.3067E-03
			10.00		5.6463E-03
			15.00		6.1651E-03
			20.00		5.8069E-03
			25.00		5.2786E-03
			30.00		5.6513E-03
			35.00		4.9831E-03
			40.00		4.8311E-03
			45.00		5.0409E-03
			50.00		4.9625E-03
			55.00		4.1109E-03
			60.00		4.3668E-03
			65.00		3.9868E-03
			70.00		3.7309E-03
			75.00		3.7161E-03
			80.00		3.4883E-03
			85.00		4.0049E-03
			90.00		3.0896E-03
			95.00		3.2219E-03
			100.00		2.9966E-03
			105.00		2.4337E-03
			110.00		2.3069E-03
			115.00		2.1509E-03
			120.00		2.5453E-03
			125.00		2.5099E-03
			130.00		1.6343E-03
		END_DATA
	END_SCAN  8
	BEGIN_SCAN  9
		TASK_NAME=MODE_INTERVAL
		PROGRAM=BeamAdjust 1.2
		MEAS_DATE=07-Oct-2010 14:12:25
		LINAC=A4
		MODALITY=X
		INPLANE_AXIS_DIR=TARGET_GUN
		CROSSPLANE_AXIS_DIR=LEFT_RIGHT
		DEPTH_AXIS_DIR=UP_DOWN
		ENERGY=6.00
		SSD=950.00
		WEDGE=None
		FIELD_INPLANE=100.00
		FIELD_CROSSPLANE=100.00
		FIELD_TYPE=RECTANGULAR
		GANTRY=0.00
		GANTRY_UPRIGHT_POSITION=0
		GANTRY_ROTATION=CW
		COLL_ANGLE=90.00
		COLL_OFFSET_INPLANE=0.00
		COLL_OFFSET_CROSSPLANE=0.00
		SCAN_DEVICE=STARCHECK
		ELECTROMETER=2D_ARRAY_INTERFACE
		DETECTOR=STARCHECK
		SCAN_CURVETYPE=INPLANE_PROFILE
		SCAN_DEPTH=0.00
		SCAN_OFFAXIS_CROSSPLANE=-100.00
		SCAN_ANGLE=0.00
		SCAN_DIAGONAL=NOT_DIAGONAL
		MEAS_PRESET=TIME_PRESET
		MEAS_TIME=10.000
		MEAS_UNIT=GY
		PRESSURE=1013.25
		TEMPERATURE=20.00
		NORM_TEMPERATURE=20.00
		CORRECTION_FACTOR=1.0000
		CORRECTIONS=AIR_DENSITY_CORR;
		BEGIN_DATA
			-60.00		8.6763E-03
			-30.00		10.857E-03
			30.00		10.056E-03
			60.00		7.4692E-03
		END_DATA
	END_SCAN  9
	BEGIN_SCAN  10
		TASK_NAME=MODE_INTERVAL
		PROGRAM=BeamAdjust 1.2
		MEAS_DATE=07-Oct-2010 14:12:25
		LINAC=A4
		MODALITY=X
		INPLANE_AXIS_DIR=TARGET_GUN
		CROSSPLANE_AXIS_DIR=LEFT_RIGHT
		DEPTH_AXIS_DIR=UP_DOWN
		ENERGY=6.00
		SSD=950.00
		WEDGE=None
		FIELD_INPLANE=100.00
		FIELD_CROSSPLANE=100.00
		FIELD_TYPE=RECTANGULAR
		GANTRY=0.00
		GANTRY_UPRIGHT_POSITION=0
		GANTRY_ROTATION=CW
		COLL_ANGLE=90.00
		COLL_OFFSET_INPLANE=0.00
		COLL_OFFSET_CROSSPLANE=0.00
		SCAN_DEVICE=STARCHECK
		ELECTROMETER=2D_ARRAY_INTERFACE
		DETECTOR=STARCHECK
		SCAN_CURVETYPE=INPLANE_PROFILE
		SCAN_DEPTH=0.00
		SCAN_OFFAXIS_CROSSPLANE=-50.00
		SCAN_ANGLE=0.00
		SCAN_DIAGONAL=NOT_DIAGONAL
		MEAS_PRESET=TIME_PRESET
		MEAS_TIME=10.000
		MEAS_UNIT=GY
		PRESSURE=1013.25
		TEMPERATURE=20.00
		NORM_TEMPERATURE=20.00
		CORRECTION_FACTOR=1.0000
		CORRECTIONS=AIR_DENSITY_CORR;
		BEGIN_DATA
			-30.00		400.52E-03
			-15.00		395.90E-03
			15.00		384.89E-03
			30.00		372.12E-03
		END_DATA
	END_SCAN  10
	BEGIN_SCAN  11
		TASK_NAME=MODE_INTERVAL
		PROGRAM=BeamAdjust 1.2
		MEAS_DATE=07-Oct-2010 14:12:25
		LINAC=A4
		MODALITY=X
		INPLANE_AXIS_DIR=TARGET_GUN
		CROSSPLANE_AXIS_DIR=LEFT_RIGHT
		DEPTH_AXIS_DIR=UP_DOWN
		ENERGY=6.00
		SSD=950.00
		WEDGE=None
		FIELD_INPLANE=100.00
		FIELD_CROSSPLANE=100.00
		FIELD_TYPE=RECTANGULAR
		GANTRY=0.00
		GANTRY_UPRIGHT_POSITION=0
		GANTRY_ROTATION=CW
		COLL_ANGLE=90.00
		COLL_OFFSET_INPLANE=0.00
		COLL_OFFSET_CROSSPLANE=0.00
		SCAN_DEVICE=STARCHECK
		ELECTROMETER=2D_ARRAY_INTERFACE
		DETECTOR=STARCHECK
		SCAN_CURVETYPE=INPLANE_PROFILE
		SCAN_DEPTH=0.00
		SCAN_OFFAXIS_CROSSPLANE=0.00
		SCAN_ANGLE=0.00
		SCAN_DIAGONAL=NOT_DIAGONAL
		MEAS_PRESET=TIME_PRESET
		MEAS_TIME=10.000
		MEAS_UNIT=GY
		PRESSURE=1013.25
		TEMPERATURE=20.00
		NORM_TEMPERATURE=20.00
		CORRECTION_FACTOR=1.0000
		CORRECTIONS=AIR_DENSITY_CORR;
		BEGIN_DATA
			-126.00		9.8542E-03
			-123.00		9.8284E-03
			-120.00		11.257E-03
			-117.00		12.396E-03
			-114.00		12.941E-03
			-111.00		13.779E-03
			-108.00		15.366E-03
			-105.00		16.216E-03
			-102.00		17.877E-03
			-99.00		18.491E-03
			-96.00		20.066E-03
			-93.00		22.690E-03
			-90.00		24.356E-03
			-87.00		26.320E-03
			-84.00		28.737E-03
			-81.00		31.717E-03
			-78.00		34.977E-03
			-75.00		37.987E-03
			-72.00		42.543E-03
			-69.00		48.052E-03
			-66.00		56.615E-03
			-63.00		68.736E-03
			-60.00		95.689E-03
			-57.00		178.14E-03
			-54.00		420.19E-03
			-51.00		595.17E-03
			-48.00		635.38E-03
			-45.00		648.95E-03
			-42.00		655.79E-03
			-39.00		660.10E-03
			-36.00		662.65E-03
			-33.00		664.59E-03
			-30.00		667.42E-03
			-27.00		667.26E-03
			-24.00		667.45E-03
			-21.00		667.63E-03
			-18.00		673.75E-03
			-15.00		669.90E-03
			-12.00		669.13E-03
			-9.00		668.94E-03
			-6.00		667.33E-03
			0.00		668.95E-03
			6.00		672.79E-03
			9.00		669.67E-03
			12.00		667.31E-03
			15.00		666.16E-03
			18.00		662.75E-03
			21.00		662.18E-03
			24.00		658.18E-03
			27.00		659.11E-03
			30.00		652.52E-03
			33.00		648.07E-03
			36.00		641.08E-03
			39.00		617.93E-03
			42.00		559.81E-03
			45.00		322.55E-03
			48.00		140.76E-03
			51.00		84.203E-03
			54.00		62.420E-03
			57.00		52.598E-03
			60.00		46.503E-03
			63.00		40.650E-03
			66.00		36.884E-03
			69.00		34.039E-03
			72.00		30.437E-03
			75.00		27.358E-03
			78.00		24.538E-03
			81.00		23.140E-03
			84.00		21.494E-03
			87.00		19.594E-03
			90.00		18.472E-03
			93.00		17.195E-03
			96.00		15.874E-03
			99.00		14.436E-03
			102.00		13.045E-03
			105.00		12.446E-03
			108.00		12.100E-03
			111.00		11.461E-03
			114.00		10.340E-03
			117.00		9.3977E-03
			120.00		9.1341E-03
			123.00		8.4758E-03
			126.00		7.5821E-03
		END_DATA
	END_SCAN  11
	BEGIN_SCAN  12
		TASK_NAME=MODE_INTERVAL
		PROGRAM=BeamAdjust 1.2
		MEAS_DATE=07-Oct-2010 14:12:25
		LINAC=A4
		MODALITY=X
		INPLANE_AXIS_DIR=TARGET_GUN
		CROSSPLANE_AXIS_DIR=LEFT_RIGHT
		DEPTH_AXIS_DIR=UP_DOWN
		ENERGY=6.00
		SSD=950.00
		WEDGE=None
		FIELD_INPLANE=100.00
		FIELD_CROSSPLANE=100.00
		FIELD_TYPE=RECTANGULAR
		GANTRY=0.00
		GANTRY_UPRIGHT_POSITION=0
		GANTRY_ROTATION=CW
		COLL_ANGLE=90.00
		COLL_OFFSET_INPLANE=0.00
		COLL_OFFSET_CROSSPLANE=0.00
		SCAN_DEVICE=STARCHECK
		ELECTROMETER=2D_ARRAY_INTERFACE
		DETECTOR=STARCHECK
		SCAN_CURVETYPE=INPLANE_PROFILE
		SCAN_DEPTH=0.00
		SCAN_OFFAXIS_CROSSPLANE=50.00
		SCAN_ANGLE=0.00
		SCAN_DIAGONAL=NOT_DIAGONAL
		MEAS_PRESET=TIME_PRESET
		MEAS_TIME=10.000
		MEAS_UNIT=GY
		PRESSURE=1013.25
		TEMPERATURE=20.00
		NORM_TEMPERATURE=20.00
		CORRECTION_FACTOR=1.0000
		CORRECTIONS=AIR_DENSITY_CORR;
		BEGIN_DATA
			-30.00		325.82E-03
			-15.00		334.17E-03
			15.00		340.73E-03
			30.00		339.31E-03
		END_DATA
	END_SCAN  12
	BEGIN_SCAN  13
		TASK_NAME=MODE_INTERVAL
		PROGRAM=BeamAdjust 1.2
		MEAS_DATE=07-Oct-2010 14:12:25
		LINAC=A4
		MODALITY=X
		INPLANE_AXIS_DIR=TARGET_GUN
		CROSSPLANE_AXIS_DIR=LEFT_RIGHT
		DEPTH_AXIS_DIR=UP_DOWN
		ENERGY=6.00
		SSD=950.00
		WEDGE=None
		FIELD_INPLANE=100.00
		FIELD_CROSSPLANE=100.00
		FIELD_TYPE=RECTANGULAR
		GANTRY=0.00
		GANTRY_UPRIGHT_POSITION=0
		GANTRY_ROTATION=CW
		COLL_ANGLE=90.00
		COLL_OFFSET_INPLANE=0.00
		COLL_OFFSET_CROSSPLANE=0.00
		SCAN_DEVICE=STARCHECK
		ELECTROMETER=2D_ARRAY_INTERFACE
		DETECTOR=STARCHECK
		SCAN_CURVETYPE=INPLANE_PROFILE
		SCAN_DEPTH=0.00
		SCAN_OFFAXIS_CROSSPLANE=100.00
		SCAN_ANGLE=0.00
		SCAN_DIAGONAL=NOT_DIAGONAL
		MEAS_PRESET=TIME_PRESET
		MEAS_TIME=10.000
		MEAS_UNIT=GY
		PRESSURE=1013.25
		TEMPERATURE=20.00
		NORM_TEMPERATURE=20.00
		CORRECTION_FACTOR=1.0000
		CORRECTIONS=AIR_DENSITY_CORR;
		BEGIN_DATA
			-60.00		8.1137E-03
			-30.00		10.317E-03
			30.00		10.611E-03
			60.00		7.2743E-03
		END_DATA
	END_SCAN  13
	BEGIN_SCAN  14
		TASK_NAME=MODE_INTERVAL
		PROGRAM=BeamAdjust 1.2
		MEAS_DATE=07-Oct-2010 14:12:25
		LINAC=A4
		MODALITY=X
		INPLANE_AXIS_DIR=TARGET_GUN
		CROSSPLANE_AXIS_DIR=LEFT_RIGHT
		DEPTH_AXIS_DIR=UP_DOWN
		ENERGY=6.00
		SSD=950.00
		WEDGE=None
		FIELD_INPLANE=100.00
		FIELD_CROSSPLANE=100.00
		FIELD_TYPE=RECTANGULAR
		GANTRY=0.00
		GANTRY_UPRIGHT_POSITION=0
		GANTRY_ROTATION=CW
		COLL_ANGLE=90.00
		COLL_OFFSET_INPLANE=0.00
		COLL_OFFSET_CROSSPLANE=0.00
		SCAN_DEVICE=STARCHECK
		ELECTROMETER=2D_ARRAY_INTERFACE
		DETECTOR=STARCHECK
		SCAN_CURVETYPE=INPLANE_PROFILE
		SCAN_DEPTH=0.00
		SCAN_OFFAXIS_CROSSPLANE=130.00
		SCAN_ANGLE=0.00
		SCAN_DIAGONAL=NOT_DIAGONAL
		MEAS_PRESET=TIME_PRESET
		MEAS_TIME=10.000
		MEAS_UNIT=GY
		PRESSURE=1013.25
		TEMPERATURE=20.00
		NORM_TEMPERATURE=20.00
		CORRECTION_FACTOR=1.0000
		CORRECTIONS=AIR_DENSITY_CORR;
		BEGIN_DATA
			-130.00		1.8970E-03
			-125.00		2.7303E-03
			-120.00		2.4787E-03
			-115.00		2.8916E-03
			-110.00		2.5525E-03
			-105.00		2.9233E-03
			-100.00		3.6004E-03
			-95.00		3.0597E-03
			-90.00		2.3859E-03
			-85.00		3.8417E-03
			-80.00		4.2093E-03
			-75.00		3.8878E-03
			-70.00		3.7687E-03
			-65.00		4.0041E-03
			-60.00		5.1218E-03
			-55.00		4.3236E-03
			-50.00		4.2176E-03
			-45.00		5.2211E-03
			-40.00		5.2599E-03
			-35.00		5.1974E-03
			-30.00		5.3721E-03
			-25.00		5.2489E-03
			-20.00		5.4580E-03
			-15.00		5.1966E-03
			-10.00		4.8185E-03
			-5.00		6.1378E-03
			0.00		5.9082E-03
			5.00		5.4776E-03
			10.00		5.6559E-03
			15.00		5.3635E-03
			20.00		5.4637E-03
			25.00		5.9017E-03
			30.00		4.9123E-03
			35.00		5.1546E-03
			40.00		5.3282E-03
			45.00		4.8925E-03
			50.00		4.9401E-03
			55.00		5.1055E-03
			60.00		4.3302E-03
			65.00		3.9668E-03
			70.00		4.2835E-03
			75.00		4.2460E-03
			80.00		3.7787E-03
			85.00		3.5570E-03
			90.00		3.5123E-03
			95.00		3.9783E-03
			100.00		3.1130E-03
			105.00		2.3625E-03
			110.00		2.6620E-03
			115.00		2.6415E-03
			120.00		2.8171E-03
			125.00		2.1252E-03
			130.00		1.6897E-03
		END_DATA
	END_SCAN  14
	BEGIN_SCAN  15
		TASK_NAME=MODE_INTERVAL
		PROGRAM=BeamAdjust 1.2
		MEAS_DATE=07-Oct-2010 14:12:25
		LINAC=A4
		MODALITY=X
		INPLANE_AXIS_DIR=TARGET_GUN
		CROSSPLANE_AXIS_DIR=LEFT_RIGHT
		DEPTH_AXIS_DIR=UP_DOWN
		ENERGY=6.00
		SSD=950.00
		WEDGE=None
		FIELD_INPLANE=100.00
		FIELD_CROSSPLANE=100.00
		FIELD_TYPE=RECTANGULAR
		GANTRY=0.00
		GANTRY_UPRIGHT_POSITION=0
		GANTRY_ROTATION=CW
		COLL_ANGLE=90.00
		COLL_OFFSET_INPLANE=0.00
		COLL_OFFSET_CROSSPLANE=0.00
		SCAN_DEVICE=STARCHECK
		ELECTROMETER=2D_ARRAY_INTERFACE
		DETECTOR=STARCHECK
		SCAN_CURVETYPE=INPLANE_PROFILE
		SCAN_DEPTH=0.00
		SCAN_OFFAXIS_CROSSPLANE=0.00
		SCAN_ANGLE=0.00
		SCAN_DIAGONAL=FIRST_DIAGONAL
		MEAS_PRESET=TIME_PRESET
		MEAS_TIME=10.000
		MEAS_UNIT=GY
		PRESSURE=1013.25
		TEMPERATURE=20.00
		NORM_TEMPERATURE=20.00
		CORRECTION_FACTOR=1.0000
		CORRECTIONS=AIR_DENSITY_CORR;
		BEGIN_DATA
			-172.40		2.5758E-03
			-169.40		3.3082E-03
			-166.40		4.0521E-03
			-163.40		3.8017E-03
			-160.40		4.0713E-03
			-157.40		4.1929E-03
			-154.40		4.4978E-03
			-151.40		4.8780E-03
			-148.40		4.6576E-03
			-145.40		5.4160E-03
			-142.40		6.1078E-03
			-139.40		6.4103E-03
			-136.40		6.1271E-03
			-133.40		7.1783E-03
			-130.40		7.7444E-03
			-127.40		8.0113E-03
			-124.40		8.6564E-03
			-121.40		9.6290E-03
			-118.40		10.309E-03
			-115.40		11.235E-03
			-112.40		12.271E-03
			-109.40		14.466E-03
			-106.40		14.712E-03
			-103.40		15.272E-03
			-100.40		16.882E-03
			-97.40		19.891E-03
			-94.40		21.815E-03
			-91.40		24.056E-03
			-88.40		27.617E-03
			-85.40		31.631E-03
			-82.40		38.004E-03
			-79.40		49.490E-03
			-76.40		79.950E-03
			-73.40		192.89E-03
			-70.40		374.80E-03
			-67.40		522.32E-03
			-64.40		594.82E-03
			-61.40		621.99E-03
			-58.40		634.75E-03
			-55.40		643.22E-03
			-52.40		648.34E-03
			-49.40		652.61E-03
			-46.40		654.51E-03
			-43.40		656.20E-03
			-40.40		658.93E-03
			-37.40		663.60E-03
			-34.40		662.47E-03
			-31.40		663.98E-03
			-28.40		662.35E-03
			-25.40		665.84E-03
			-22.40		666.28E-03
			-19.40		667.28E-03
			-16.40		669.81E-03
			-13.40		670.82E-03
			0.00		668.95E-03
			13.40		669.93E-03
			16.40		666.12E-03
			19.40		666.07E-03
			22.40		664.90E-03
			25.40		663.67E-03
			28.40		662.35E-03
			31.40		659.25E-03
			34.40		655.55E-03
			37.40		657.28E-03
			40.40		654.47E-03
			43.40		649.72E-03
			46.40		646.42E-03
			49.40		637.24E-03
			52.40		626.16E-03
			55.40		597.10E-03
			58.40		532.00E-03
			61.40		402.28E-03
			64.40		242.01E-03
			67.40		115.27E-03
			70.40		61.307E-03
			73.40		43.679E-03
			76.40		35.373E-03
			79.40		30.408E-03
			82.40		27.169E-03
			85.40		23.770E-03
			88.40		21.405E-03
			91.40		19.000E-03
			94.40		17.544E-03
			97.40		15.886E-03
			100.40		14.323E-03
			103.40		13.639E-03
			106.40		12.327E-03
			109.40		11.280E-03
			112.40		9.6859E-03
			115.40		9.1488E-03
			118.40		8.3888E-03
			121.40		8.2746E-03
			124.40		7.2754E-03
			127.40		6.8276E-03
			130.40		7.0022E-03
			133.40		6.0819E-03
			136.40		4.9367E-03
			139.40		4.3930E-03
			142.40		4.3867E-03
			145.40		4.5796E-03
			148.40		4.2849E-03
			151.40		3.5269E-03
			154.40		3.7214E-03
			157.40		3.5296E-03
			160.40		2.4014E-03
			163.40		2.7376E-03
			166.40		2.9391E-03
			169.40		2.5193E-03
			172.40		2.4400E-03
		END_DATA
	END_SCAN  15
	BEGIN_SCAN  16
		TASK_NAME=MODE_INTERVAL
		PROGRAM=BeamAdjust 1.2
		MEAS_DATE=07-Oct-2010 14:12:25
		LINAC=A4
		MODALITY=X
		INPLANE_AXIS_DIR=GUN_TARGET
		CROSSPLANE_AXIS_DIR=LEFT_RIGHT
		DEPTH_AXIS_DIR=UP_DOWN
		ENERGY=6.00
		SSD=950.00
		WEDGE=None
		FIELD_INPLANE=100.00
		FIELD_CROSSPLANE=100.00
		FIELD_TYPE=RECTANGULAR
		GANTRY=0.00
		GANTRY_UPRIGHT_POSITION=0
		GANTRY_ROTATION=CW
		COLL_ANGLE=90.00
		COLL_OFFSET_INPLANE=0.00
		COLL_OFFSET_CROSSPLANE=0.00
		SCAN_DEVICE=STARCHECK
		ELECTROMETER=2D_ARRAY_INTERFACE
		DETECTOR=STARCHECK
		SCAN_CURVETYPE=INPLANE_PROFILE
		SCAN_DEPTH=0.00
		SCAN_OFFAXIS_CROSSPLANE=0.00
		SCAN_ANGLE=0.00
		SCAN_DIAGONAL=SECOND_DIAGONAL
		MEAS_PRESET=TIME_PRESET
		MEAS_TIME=10.000
		MEAS_UNIT=GY
		PRESSURE=1013.25
		TEMPERATURE=20.00
		NORM_TEMPERATURE=20.00
		CORRECTION_FACTOR=1.0000
		CORRECTIONS=AIR_DENSITY_CORR;
		BEGIN_DATA
			-172.40		2.8265E-03
			-169.40		2.8548E-03
			-166.40		3.0247E-03
			-163.40		3.1768E-03
			-160.40		3.4707E-03
			-157.40		3.7771E-03
			-154.40		4.5445E-03
			-151.40		4.4873E-03
			-148.40		4.7493E-03
			-145.40		4.8465E-03
			-142.40		5.6464E-03
			-139.40		5.8125E-03
			-136.40		5.9052E-03
			-133.40		6.7977E-03
			-130.40		7.5890E-03
			-127.40		8.3712E-03
			-124.40		8.6557E-03
			-121.40		9.4017E-03
			-118.40		10.431E-03
			-115.40		10.672E-03
			-112.40		11.592E-03
			-109.40		13.019E-03
			-106.40		14.682E-03
			-103.40		15.468E-03
			-100.40		17.069E-03
			-97.40		18.883E-03
			-94.40		20.940E-03
			-91.40		23.409E-03
			-88.40		25.332E-03
			-85.40		29.359E-03
			-82.40		35.526E-03
			-79.40		44.649E-03
			-76.40		64.575E-03
			-73.40		138.89E-03
			-70.40		304.47E-03
			-67.40		469.64E-03
			-64.40		576.99E-03
			-61.40		618.71E-03
			-58.40		637.73E-03
			-55.40		645.44E-03
			-52.40		654.80E-03
			-49.40		658.10E-03
			-46.40		660.65E-03
			-43.40		662.84E-03
			-40.40		664.56E-03
			-37.40		667.59E-03
			-34.40		666.42E-03
			-31.40		666.94E-03
			-28.40		668.93E-03
			-25.40		667.86E-03
			-22.40		665.97E-03
			-19.40		669.62E-03
			-16.40		671.13E-03
			-13.40		672.80E-03
			0.00		668.95E-03
			13.40		669.21E-03
			16.40		666.21E-03
			19.40		663.98E-03
			22.40		661.53E-03
			25.40		660.65E-03
			28.40		659.00E-03
			31.40		657.49E-03
			34.40		654.43E-03
			37.40		652.70E-03
			40.40		650.28E-03
			43.40		647.28E-03
			46.40		644.36E-03
			49.40		637.18E-03
			52.40		622.86E-03
			55.40		600.24E-03
			58.40		546.18E-03
			61.40		427.14E-03
			64.40		266.66E-03
			67.40		127.37E-03
			70.40		65.156E-03
			73.40		44.608E-03
			76.40		36.408E-03
			79.40		30.372E-03
			82.40		27.308E-03
			85.40		24.476E-03
			88.40		22.063E-03
			91.40		19.803E-03
			94.40		17.665E-03
			97.40		16.367E-03
			100.40		14.346E-03
			103.40		13.027E-03
			106.40		12.168E-03
			109.40		10.821E-03
			112.40		10.220E-03
			115.40		9.8287E-03
			118.40		9.5156E-03
			121.40		7.7200E-03
			124.40		7.2360E-03
			127.40		6.9077E-03
			130.40		6.8277E-03
			133.40		6.0984E-03
			136.40		5.5137E-03
			139.40		5.8654E-03
			142.40		5.2157E-03
			145.40		5.1672E-03
			148.40		4.5193E-03
			151.40		3.6653E-03
			154.40		3.9298E-03
			157.40		4.1823E-03
			160.40		4.0673E-03
			163.40		3.3538E-03
			166.40		3.4733E-03
			169.40		2.9112E-03
			172.40		2.2951E-03
		END_DATA
	END_SCAN  16
END_SCAN_DATA
