BEGIN_SCAN_DATA
	FORMAT=CC-Export V1.9                  
	FILE_CREATION_DATE=07-Oct-2010 14:11:48
	LAST_MODIFIED=07-Oct-2010 14:11:48
	BEGIN_SCAN  1
		TASK_NAME=MODE_INTERVAL
		PROGRAM=BeamAdjust 1.2
		MEAS_DATE=07-Oct-2010 14:11:48
		LINAC=A4
		MODALITY=X
		INPLANE_AXIS_DIR=TARGET_GUN
		CROSSPLANE_AXIS_DIR=LEFT_RIGHT
		DEPTH_AXIS_DIR=UP_DOWN
		ENERGY=6.00
		SSD=950.00
		WEDGE=None
		FIELD_INPLANE=100.00
		FIELD_CROSSPLANE=100.00
		FIELD_TYPE=RECTANGULAR
		GANTRY=0.00
		GANTRY_UPRIGHT_POSITION=0
		GANTRY_ROTATION=CW
		COLL_ANGLE=90.00
		COLL_OFFSET_INPLANE=0.00
		COLL_OFFSET_CROSSPLANE=0.00
		SCAN_DEVICE=STARCHECK
		ELECTROMETER=2D_ARRAY_INTERFACE
		DETECTOR=STARCHECK
		SCAN_CURVETYPE=CROSSPLANE_PROFILE
		SCAN_DEPTH=0.00
		SCAN_OFFAXIS_INPLANE=-130.00
		SCAN_ANGLE=0.00
		SCAN_DIAGONAL=NOT_DIAGONAL
		MEAS_PRESET=TIME_PRESET
		MEAS_TIME=10.000
		MEAS_UNIT=GY
		PRESSURE=1013.25
		TEMPERATURE=20.00
		NORM_TEMPERATURE=20.00
		CORRECTION_FACTOR=1.0000
		CORRECTIONS=AIR_DENSITY_CORR;
		BEGIN_DATA
			-130.00		3.3719E-03
			-80.00		4.5452E-03
			-40.00		7.7450E-03
			40.00		7.6719E-03
			80.00		4.0113E-03
			130.00		2.0107E-03
		END_DATA
	END_SCAN  1
	BEGIN_SCAN  2
		TASK_NAME=MODE_INTERVAL
		PROGRAM=BeamAdjust 1.2
		MEAS_DATE=07-Oct-2010 14:11:48
		LINAC=A4
		MODALITY=X
		INPLANE_AXIS_DIR=TARGET_GUN
		CROSSPLANE_AXIS_DIR=LEFT_RIGHT
		DEPTH_AXIS_DIR=UP_DOWN
		ENERGY=6.00
		SSD=950.00
		WEDGE=None
		FIELD_INPLANE=100.00
		FIELD_CROSSPLANE=100.00
		FIELD_TYPE=RECTANGULAR
		GANTRY=0.00
		GANTRY_UPRIGHT_POSITION=0
		GANTRY_ROTATION=CW
		COLL_ANGLE=90.00
		COLL_OFFSET_INPLANE=0.00
		COLL_OFFSET_CROSSPLANE=0.00
		SCAN_DEVICE=STARCHECK
		ELECTROMETER=2D_ARRAY_INTERFACE
		DETECTOR=STARCHECK
		SCAN_CURVETYPE=CROSSPLANE_PROFILE
		SCAN_DEPTH=0.00
		SCAN_OFFAXIS_INPLANE=-100.00
		SCAN_ANGLE=0.00
		SCAN_DIAGONAL=NOT_DIAGONAL
		MEAS_PRESET=TIME_PRESET
		MEAS_TIME=10.000
		MEAS_UNIT=GY
		PRESSURE=1013.25
		TEMPERATURE=20.00
		NORM_TEMPERATURE=20.00
		CORRECTION_FACTOR=1.0000
		CORRECTIONS=AIR_DENSITY_CORR;
		BEGIN_DATA
			-60.00		11.607E-03
			-30.00		16.261E-03
			30.00		16.655E-03
			60.00		11.175E-03
		END_DATA
	END_SCAN  2
	BEGIN_SCAN  3
		TASK_NAME=MODE_INTERVAL
		PROGRAM=BeamAdjust 1.2
		MEAS_DATE=07-Oct-2010 14:11:48
		LINAC=A4
		MODALITY=X
		INPLANE_AXIS_DIR=TARGET_GUN
		CROSSPLANE_AXIS_DIR=LEFT_RIGHT
		DEPTH_AXIS_DIR=UP_DOWN
		ENERGY=6.00
		SSD=950.00
		WEDGE=None
		FIELD_INPLANE=100.00
		FIELD_CROSSPLANE=100.00
		FIELD_TYPE=RECTANGULAR
		GANTRY=0.00
		GANTRY_UPRIGHT_POSITION=0
		GANTRY_ROTATION=CW
		COLL_ANGLE=90.00
		COLL_OFFSET_INPLANE=0.00
		COLL_OFFSET_CROSSPLANE=0.00
		SCAN_DEVICE=STARCHECK
		ELECTROMETER=2D_ARRAY_INTERFACE
		DETECTOR=STARCHECK
		SCAN_CURVETYPE=CROSSPLANE_PROFILE
		SCAN_DEPTH=0.00
		SCAN_OFFAXIS_INPLANE=-50.00
		SCAN_ANGLE=0.00
		SCAN_DIAGONAL=NOT_DIAGONAL
		MEAS_PRESET=TIME_PRESET
		MEAS_TIME=10.000
		MEAS_UNIT=GY
		PRESSURE=1013.25
		TEMPERATURE=20.00
		NORM_TEMPERATURE=20.00
		CORRECTION_FACTOR=1.0000
		CORRECTIONS=AIR_DENSITY_CORR;
		BEGIN_DATA
			-30.00		626.40E-03
			-15.00		622.20E-03
			15.00		631.66E-03
			30.00		628.83E-03
		END_DATA
	END_SCAN  3
	BEGIN_SCAN  4
		TASK_NAME=MODE_INTERVAL
		PROGRAM=BeamAdjust 1.2
		MEAS_DATE=07-Oct-2010 14:11:48
		LINAC=A4
		MODALITY=X
		INPLANE_AXIS_DIR=TARGET_GUN
		CROSSPLANE_AXIS_DIR=LEFT_RIGHT
		DEPTH_AXIS_DIR=UP_DOWN
		ENERGY=6.00
		SSD=950.00
		WEDGE=None
		FIELD_INPLANE=100.00
		FIELD_CROSSPLANE=100.00
		FIELD_TYPE=RECTANGULAR
		GANTRY=0.00
		GANTRY_UPRIGHT_POSITION=0
		GANTRY_ROTATION=CW
		COLL_ANGLE=90.00
		COLL_OFFSET_INPLANE=0.00
		COLL_OFFSET_CROSSPLANE=0.00
		SCAN_DEVICE=STARCHECK
		ELECTROMETER=2D_ARRAY_INTERFACE
		DETECTOR=STARCHECK
		SCAN_CURVETYPE=CROSSPLANE_PROFILE
		SCAN_DEPTH=0.00
		SCAN_OFFAXIS_INPLANE=0.00
		SCAN_ANGLE=0.00
		SCAN_DIAGONAL=NOT_DIAGONAL
		MEAS_PRESET=TIME_PRESET
		MEAS_TIME=10.000
		MEAS_UNIT=GY
		PRESSURE=1013.25
		TEMPERATURE=20.00
		NORM_TEMPERATURE=20.00
		CORRECTION_FACTOR=1.0000
		CORRECTIONS=AIR_DENSITY_CORR;
		BEGIN_DATA
			-126.00		6.4678E-03
			-123.00		7.3457E-03
			-120.00		7.9477E-03
			-117.00		8.6934E-03
			-114.00		8.6606E-03
			-111.00		9.8686E-03
			-108.00		10.634E-03
			-105.00		11.012E-03
			-102.00		11.592E-03
			-99.00		12.813E-03
			-96.00		13.927E-03
			-93.00		15.332E-03
			-90.00		16.466E-03
			-87.00		18.107E-03
			-84.00		20.149E-03
			-81.00		21.653E-03
			-78.00		24.061E-03
			-75.00		27.025E-03
			-72.00		29.578E-03
			-69.00		34.483E-03
			-66.00		39.349E-03
			-63.00		45.312E-03
			-60.00		55.062E-03
			-57.00		72.554E-03
			-54.00		114.57E-03
			-51.00		293.15E-03
			-48.00		556.26E-03
			-45.00		616.96E-03
			-42.00		636.74E-03
			-39.00		649.37E-03
			-36.00		655.27E-03
			-33.00		655.40E-03
			-30.00		657.35E-03
			-27.00		660.35E-03
			-24.00		662.40E-03
			-21.00		661.69E-03
			-18.00		667.57E-03
			-15.00		667.86E-03
			-12.00		667.25E-03
			-9.00		670.20E-03
			-6.00		670.17E-03
			0.00		669.76E-03
			6.00		672.61E-03
			9.00		670.99E-03
			12.00		668.24E-03
			15.00		667.10E-03
			18.00		666.39E-03
			21.00		665.04E-03
			24.00		661.39E-03
			27.00		665.41E-03
			30.00		663.57E-03
			33.00		661.10E-03
			36.00		658.01E-03
			39.00		651.95E-03
			42.00		639.88E-03
			45.00		614.79E-03
			48.00		525.39E-03
			51.00		230.94E-03
			54.00		101.31E-03
			57.00		68.144E-03
			60.00		52.915E-03
			63.00		44.558E-03
			66.00		37.568E-03
			69.00		32.920E-03
			72.00		29.175E-03
			75.00		26.110E-03
			78.00		23.625E-03
			81.00		21.455E-03
			84.00		19.354E-03
			87.00		17.394E-03
			90.00		16.713E-03
			93.00		14.937E-03
			96.00		13.047E-03
			99.00		12.438E-03
			102.00		11.818E-03
			105.00		11.160E-03
			108.00		10.180E-03
			111.00		8.9324E-03
			114.00		8.6465E-03
			117.00		7.8956E-03
			120.00		6.9815E-03
			123.00		7.1294E-03
			126.00		7.0013E-03
		END_DATA
	END_SCAN  4
	BEGIN_SCAN  5
		TASK_NAME=MODE_INTERVAL
		PROGRAM=BeamAdjust 1.2
		MEAS_DATE=07-Oct-2010 14:11:48
		LINAC=A4
		MODALITY=X
		INPLANE_AXIS_DIR=TARGET_GUN
		CROSSPLANE_AXIS_DIR=LEFT_RIGHT
		DEPTH_AXIS_DIR=UP_DOWN
		ENERGY=6.00
		SSD=950.00
		WEDGE=None
		FIELD_INPLANE=100.00
		FIELD_CROSSPLANE=100.00
		FIELD_TYPE=RECTANGULAR
		GANTRY=0.00
		GANTRY_UPRIGHT_POSITION=0
		GANTRY_ROTATION=CW
		COLL_ANGLE=90.00
		COLL_OFFSET_INPLANE=0.00
		COLL_OFFSET_CROSSPLANE=0.00
		SCAN_DEVICE=STARCHECK
		ELECTROMETER=2D_ARRAY_INTERFACE
		DETECTOR=STARCHECK
		SCAN_CURVETYPE=CROSSPLANE_PROFILE
		SCAN_DEPTH=0.00
		SCAN_OFFAXIS_INPLANE=50.00
		SCAN_ANGLE=0.00
		SCAN_DIAGONAL=NOT_DIAGONAL
		MEAS_PRESET=TIME_PRESET
		MEAS_TIME=10.000
		MEAS_UNIT=GY
		PRESSURE=1013.25
		TEMPERATURE=20.00
		NORM_TEMPERATURE=20.00
		CORRECTION_FACTOR=1.0000
		CORRECTIONS=AIR_DENSITY_CORR;
		BEGIN_DATA
			-30.00		83.494E-03
			-15.00		86.501E-03
			15.00		81.873E-03
			30.00		81.315E-03
		END_DATA
	END_SCAN  5
	BEGIN_SCAN  6
		TASK_NAME=MODE_INTERVAL
		PROGRAM=BeamAdjust 1.2
		MEAS_DATE=07-Oct-2010 14:11:48
		LINAC=A4
		MODALITY=X
		INPLANE_AXIS_DIR=TARGET_GUN
		CROSSPLANE_AXIS_DIR=LEFT_RIGHT
		DEPTH_AXIS_DIR=UP_DOWN
		ENERGY=6.00
		SSD=950.00
		WEDGE=None
		FIELD_INPLANE=100.00
		FIELD_CROSSPLANE=100.00
		FIELD_TYPE=RECTANGULAR
		GANTRY=0.00
		GANTRY_UPRIGHT_POSITION=0
		GANTRY_ROTATION=CW
		COLL_ANGLE=90.00
		COLL_OFFSET_INPLANE=0.00
		COLL_OFFSET_CROSSPLANE=0.00
		SCAN_DEVICE=STARCHECK
		ELECTROMETER=2D_ARRAY_INTERFACE
		DETECTOR=STARCHECK
		SCAN_CURVETYPE=CROSSPLANE_PROFILE
		SCAN_DEPTH=0.00
		SCAN_OFFAXIS_INPLANE=100.00
		SCAN_ANGLE=0.00
		SCAN_DIAGONAL=NOT_DIAGONAL
		MEAS_PRESET=TIME_PRESET
		MEAS_TIME=10.000
		MEAS_UNIT=GY
		PRESSURE=1013.25
		TEMPERATURE=20.00
		NORM_TEMPERATURE=20.00
		CORRECTION_FACTOR=1.0000
		CORRECTIONS=AIR_DENSITY_CORR;
		BEGIN_DATA
			-60.00		9.2514E-03
			-30.00		13.368E-03
			30.00		13.584E-03
			60.00		7.9652E-03
		END_DATA
	END_SCAN  6
	BEGIN_SCAN  7
		TASK_NAME=MODE_INTERVAL
		PROGRAM=BeamAdjust 1.2
		MEAS_DATE=07-Oct-2010 14:11:48
		LINAC=A4
		MODALITY=X
		INPLANE_AXIS_DIR=TARGET_GUN
		CROSSPLANE_AXIS_DIR=LEFT_RIGHT
		DEPTH_AXIS_DIR=UP_DOWN
		ENERGY=6.00
		SSD=950.00
		WEDGE=None
		FIELD_INPLANE=100.00
		FIELD_CROSSPLANE=100.00
		FIELD_TYPE=RECTANGULAR
		GANTRY=0.00
		GANTRY_UPRIGHT_POSITION=0
		GANTRY_ROTATION=CW
		COLL_ANGLE=90.00
		COLL_OFFSET_INPLANE=0.00
		COLL_OFFSET_CROSSPLANE=0.00
		SCAN_DEVICE=STARCHECK
		ELECTROMETER=2D_ARRAY_INTERFACE
		DETECTOR=STARCHECK
		SCAN_CURVETYPE=CROSSPLANE_PROFILE
		SCAN_DEPTH=0.00
		SCAN_OFFAXIS_INPLANE=130.00
		SCAN_ANGLE=0.00
		SCAN_DIAGONAL=NOT_DIAGONAL
		MEAS_PRESET=TIME_PRESET
		MEAS_TIME=10.000
		MEAS_UNIT=GY
		PRESSURE=1013.25
		TEMPERATURE=20.00
		NORM_TEMPERATURE=20.00
		CORRECTION_FACTOR=1.0000
		CORRECTIONS=AIR_DENSITY_CORR;
		BEGIN_DATA
			-130.00		1.9573E-03
			-80.00		3.7463E-03
			-40.00		6.9410E-03
			40.00		6.4703E-03
			80.00		3.9093E-03
			130.00		2.2486E-03
		END_DATA
	END_SCAN  7
	BEGIN_SCAN  8
		TASK_NAME=MODE_INTERVAL
		PROGRAM=BeamAdjust 1.2
		MEAS_DATE=07-Oct-2010 14:11:48
		LINAC=A4
		MODALITY=X
		INPLANE_AXIS_DIR=TARGET_GUN
		CROSSPLANE_AXIS_DIR=LEFT_RIGHT
		DEPTH_AXIS_DIR=UP_DOWN
		ENERGY=6.00
		SSD=950.00
		WEDGE=None
		FIELD_INPLANE=100.00
		FIELD_CROSSPLANE=100.00
		FIELD_TYPE=RECTANGULAR
		GANTRY=0.00
		GANTRY_UPRIGHT_POSITION=0
		GANTRY_ROTATION=CW
		COLL_ANGLE=90.00
		COLL_OFFSET_INPLANE=0.00
		COLL_OFFSET_CROSSPLANE=0.00
		SCAN_DEVICE=STARCHECK
		ELECTROMETER=2D_ARRAY_INTERFACE
		DETECTOR=STARCHECK
		SCAN_CURVETYPE=INPLANE_PROFILE
		SCAN_DEPTH=0.00
		SCAN_OFFAXIS_CROSSPLANE=-130.00
		SCAN_ANGLE=0.00
		SCAN_DIAGONAL=NOT_DIAGONAL
		MEAS_PRESET=TIME_PRESET
		MEAS_TIME=10.000
		MEAS_UNIT=GY
		PRESSURE=1013.25
		TEMPERATURE=20.00
		NORM_TEMPERATURE=20.00
		CORRECTION_FACTOR=1.0000
		CORRECTIONS=AIR_DENSITY_CORR;
		BEGIN_DATA
			-130.00		3.3719E-03
			-125.00		2.7465E-03
			-120.00		3.1215E-03
			-115.00		3.5506E-03
			-110.00		3.3266E-03
			-105.00		3.8256E-03
			-100.00		4.2265E-03
			-95.00		4.5253E-03
			-90.00		5.0048E-03
			-85.00		4.5095E-03
			-80.00		4.6451E-03
			-75.00		5.2828E-03
			-70.00		4.8689E-03
			-65.00		5.0775E-03
			-60.00		6.0923E-03
			-55.00		6.2493E-03
			-50.00		4.5161E-03
			-45.00		4.7917E-03
			-40.00		4.9935E-03
			-35.00		5.9262E-03
			-30.00		5.4428E-03
			-25.00		5.1638E-03
			-20.00		5.3743E-03
			-15.00		5.1610E-03
			-10.00		5.2065E-03
			-5.00		6.6032E-03
			0.00		6.1276E-03
			5.00		6.2225E-03
			10.00		6.0611E-03
			15.00		5.6354E-03
			20.00		5.9234E-03
			25.00		5.2146E-03
			30.00		5.3139E-03
			35.00		5.0665E-03
			40.00		5.2184E-03
			45.00		4.9232E-03
			50.00		4.4136E-03
			55.00		4.4676E-03
			60.00		4.5806E-03
			65.00		3.7780E-03
			70.00		3.8869E-03
			75.00		3.8335E-03
			80.00		3.9548E-03
			85.00		3.3708E-03
			90.00		2.9128E-03
			95.00		3.2712E-03
			100.00		3.1176E-03
			105.00		2.3485E-03
			110.00		2.3994E-03
			115.00		2.1895E-03
			120.00		2.4279E-03
			125.00		2.1548E-03
			130.00		1.9573E-03
		END_DATA
	END_SCAN  8
	BEGIN_SCAN  9
		TASK_NAME=MODE_INTERVAL
		PROGRAM=BeamAdjust 1.2
		MEAS_DATE=07-Oct-2010 14:11:48
		LINAC=A4
		MODALITY=X
		INPLANE_AXIS_DIR=TARGET_GUN
		CROSSPLANE_AXIS_DIR=LEFT_RIGHT
		DEPTH_AXIS_DIR=UP_DOWN
		ENERGY=6.00
		SSD=950.00
		WEDGE=None
		FIELD_INPLANE=100.00
		FIELD_CROSSPLANE=100.00
		FIELD_TYPE=RECTANGULAR
		GANTRY=0.00
		GANTRY_UPRIGHT_POSITION=0
		GANTRY_ROTATION=CW
		COLL_ANGLE=90.00
		COLL_OFFSET_INPLANE=0.00
		COLL_OFFSET_CROSSPLANE=0.00
		SCAN_DEVICE=STARCHECK
		ELECTROMETER=2D_ARRAY_INTERFACE
		DETECTOR=STARCHECK
		SCAN_CURVETYPE=INPLANE_PROFILE
		SCAN_DEPTH=0.00
		SCAN_OFFAXIS_CROSSPLANE=-100.00
		SCAN_ANGLE=0.00
		SCAN_DIAGONAL=NOT_DIAGONAL
		MEAS_PRESET=TIME_PRESET
		MEAS_TIME=10.000
		MEAS_UNIT=GY
		PRESSURE=1013.25
		TEMPERATURE=20.00
		NORM_TEMPERATURE=20.00
		CORRECTION_FACTOR=1.0000
		CORRECTIONS=AIR_DENSITY_CORR;
		BEGIN_DATA
			-60.00		8.9384E-03
			-30.00		10.723E-03
			30.00		10.255E-03
			60.00		7.9245E-03
		END_DATA
	END_SCAN  9
	BEGIN_SCAN  10
		TASK_NAME=MODE_INTERVAL
		PROGRAM=BeamAdjust 1.2
		MEAS_DATE=07-Oct-2010 14:11:48
		LINAC=A4
		MODALITY=X
		INPLANE_AXIS_DIR=TARGET_GUN
		CROSSPLANE_AXIS_DIR=LEFT_RIGHT
		DEPTH_AXIS_DIR=UP_DOWN
		ENERGY=6.00
		SSD=950.00
		WEDGE=None
		FIELD_INPLANE=100.00
		FIELD_CROSSPLANE=100.00
		FIELD_TYPE=RECTANGULAR
		GANTRY=0.00
		GANTRY_UPRIGHT_POSITION=0
		GANTRY_ROTATION=CW
		COLL_ANGLE=90.00
		COLL_OFFSET_INPLANE=0.00
		COLL_OFFSET_CROSSPLANE=0.00
		SCAN_DEVICE=STARCHECK
		ELECTROMETER=2D_ARRAY_INTERFACE
		DETECTOR=STARCHECK
		SCAN_CURVETYPE=INPLANE_PROFILE
		SCAN_DEPTH=0.00
		SCAN_OFFAXIS_CROSSPLANE=-50.00
		SCAN_ANGLE=0.00
		SCAN_DIAGONAL=NOT_DIAGONAL
		MEAS_PRESET=TIME_PRESET
		MEAS_TIME=10.000
		MEAS_UNIT=GY
		PRESSURE=1013.25
		TEMPERATURE=20.00
		NORM_TEMPERATURE=20.00
		CORRECTION_FACTOR=1.0000
		CORRECTIONS=AIR_DENSITY_CORR;
		BEGIN_DATA
			-30.00		400.45E-03
			-15.00		396.34E-03
			15.00		384.72E-03
			30.00		371.87E-03
		END_DATA
	END_SCAN  10
	BEGIN_SCAN  11
		TASK_NAME=MODE_INTERVAL
		PROGRAM=BeamAdjust 1.2
		MEAS_DATE=07-Oct-2010 14:11:48
		LINAC=A4
		MODALITY=X
		INPLANE_AXIS_DIR=TARGET_GUN
		CROSSPLANE_AXIS_DIR=LEFT_RIGHT
		DEPTH_AXIS_DIR=UP_DOWN
		ENERGY=6.00
		SSD=950.00
		WEDGE=None
		FIELD_INPLANE=100.00
		FIELD_CROSSPLANE=100.00
		FIELD_TYPE=RECTANGULAR
		GANTRY=0.00
		GANTRY_UPRIGHT_POSITION=0
		GANTRY_ROTATION=CW
		COLL_ANGLE=90.00
		COLL_OFFSET_INPLANE=0.00
		COLL_OFFSET_CROSSPLANE=0.00
		SCAN_DEVICE=STARCHECK
		ELECTROMETER=2D_ARRAY_INTERFACE
		DETECTOR=STARCHECK
		SCAN_CURVETYPE=INPLANE_PROFILE
		SCAN_DEPTH=0.00
		SCAN_OFFAXIS_CROSSPLANE=0.00
		SCAN_ANGLE=0.00
		SCAN_DIAGONAL=NOT_DIAGONAL
		MEAS_PRESET=TIME_PRESET
		MEAS_TIME=10.000
		MEAS_UNIT=GY
		PRESSURE=1013.25
		TEMPERATURE=20.00
		NORM_TEMPERATURE=20.00
		CORRECTION_FACTOR=1.0000
		CORRECTIONS=AIR_DENSITY_CORR;
		BEGIN_DATA
			-126.00		9.9156E-03
			-123.00		9.9856E-03
			-120.00		11.147E-03
			-117.00		12.478E-03
			-114.00		13.201E-03
			-111.00		14.556E-03
			-108.00		14.999E-03
			-105.00		16.230E-03
			-102.00		17.977E-03
			-99.00		18.513E-03
			-96.00		20.444E-03
			-93.00		22.735E-03
			-90.00		24.523E-03
			-87.00		26.690E-03
			-84.00		29.175E-03
			-81.00		31.895E-03
			-78.00		35.146E-03
			-75.00		38.663E-03
			-72.00		43.175E-03
			-69.00		49.082E-03
			-66.00		56.954E-03
			-63.00		70.676E-03
			-60.00		99.859E-03
			-57.00		193.06E-03
			-54.00		447.59E-03
			-51.00		601.43E-03
			-48.00		637.82E-03
			-45.00		650.26E-03
			-42.00		656.56E-03
			-39.00		660.78E-03
			-36.00		663.46E-03
			-33.00		665.10E-03
			-30.00		667.77E-03
			-27.00		668.76E-03
			-24.00		667.73E-03
			-21.00		668.47E-03
			-18.00		674.22E-03
			-15.00		670.34E-03
			-12.00		669.75E-03
			-9.00		669.33E-03
			-6.00		667.66E-03
			0.00		669.76E-03
			6.00		673.72E-03
			9.00		670.49E-03
			12.00		667.79E-03
			15.00		667.06E-03
			18.00		663.67E-03
			21.00		662.82E-03
			24.00		659.65E-03
			27.00		659.44E-03
			30.00		652.71E-03
			33.00		647.90E-03
			36.00		641.03E-03
			39.00		615.84E-03
			42.00		546.47E-03
			45.00		295.61E-03
			48.00		131.89E-03
			51.00		81.231E-03
			54.00		61.441E-03
			57.00		51.727E-03
			60.00		45.580E-03
			63.00		40.538E-03
			66.00		37.129E-03
			69.00		33.264E-03
			72.00		30.380E-03
			75.00		27.237E-03
			78.00		24.196E-03
			81.00		22.975E-03
			84.00		21.545E-03
			87.00		19.556E-03
			90.00		18.508E-03
			93.00		16.791E-03
			96.00		15.903E-03
			99.00		14.445E-03
			102.00		13.273E-03
			105.00		12.301E-03
			108.00		12.079E-03
			111.00		10.839E-03
			114.00		10.612E-03
			117.00		9.3514E-03
			120.00		8.9322E-03
			123.00		8.4175E-03
			126.00		7.3811E-03
		END_DATA
	END_SCAN  11
	BEGIN_SCAN  12
		TASK_NAME=MODE_INTERVAL
		PROGRAM=BeamAdjust 1.2
		MEAS_DATE=07-Oct-2010 14:11:48
		LINAC=A4
		MODALITY=X
		INPLANE_AXIS_DIR=TARGET_GUN
		CROSSPLANE_AXIS_DIR=LEFT_RIGHT
		DEPTH_AXIS_DIR=UP_DOWN
		ENERGY=6.00
		SSD=950.00
		WEDGE=None
		FIELD_INPLANE=100.00
		FIELD_CROSSPLANE=100.00
		FIELD_TYPE=RECTANGULAR
		GANTRY=0.00
		GANTRY_UPRIGHT_POSITION=0
		GANTRY_ROTATION=CW
		COLL_ANGLE=90.00
		COLL_OFFSET_INPLANE=0.00
		COLL_OFFSET_CROSSPLANE=0.00
		SCAN_DEVICE=STARCHECK
		ELECTROMETER=2D_ARRAY_INTERFACE
		DETECTOR=STARCHECK
		SCAN_CURVETYPE=INPLANE_PROFILE
		SCAN_DEPTH=0.00
		SCAN_OFFAXIS_CROSSPLANE=50.00
		SCAN_ANGLE=0.00
		SCAN_DIAGONAL=NOT_DIAGONAL
		MEAS_PRESET=TIME_PRESET
		MEAS_TIME=10.000
		MEAS_UNIT=GY
		PRESSURE=1013.25
		TEMPERATURE=20.00
		NORM_TEMPERATURE=20.00
		CORRECTION_FACTOR=1.0000
		CORRECTIONS=AIR_DENSITY_CORR;
		BEGIN_DATA
			-30.00		326.70E-03
			-15.00		335.01E-03
			15.00		341.02E-03
			30.00		339.87E-03
		END_DATA
	END_SCAN  12
	BEGIN_SCAN  13
		TASK_NAME=MODE_INTERVAL
		PROGRAM=BeamAdjust 1.2
		MEAS_DATE=07-Oct-2010 14:11:48
		LINAC=A4
		MODALITY=X
		INPLANE_AXIS_DIR=TARGET_GUN
		CROSSPLANE_AXIS_DIR=LEFT_RIGHT
		DEPTH_AXIS_DIR=UP_DOWN
		ENERGY=6.00
		SSD=950.00
		WEDGE=None
		FIELD_INPLANE=100.00
		FIELD_CROSSPLANE=100.00
		FIELD_TYPE=RECTANGULAR
		GANTRY=0.00
		GANTRY_UPRIGHT_POSITION=0
		GANTRY_ROTATION=CW
		COLL_ANGLE=90.00
		COLL_OFFSET_INPLANE=0.00
		COLL_OFFSET_CROSSPLANE=0.00
		SCAN_DEVICE=STARCHECK
		ELECTROMETER=2D_ARRAY_INTERFACE
		DETECTOR=STARCHECK
		SCAN_CURVETYPE=INPLANE_PROFILE
		SCAN_DEPTH=0.00
		SCAN_OFFAXIS_CROSSPLANE=100.00
		SCAN_ANGLE=0.00
		SCAN_DIAGONAL=NOT_DIAGONAL
		MEAS_PRESET=TIME_PRESET
		MEAS_TIME=10.000
		MEAS_UNIT=GY
		PRESSURE=1013.25
		TEMPERATURE=20.00
		NORM_TEMPERATURE=20.00
		CORRECTION_FACTOR=1.0000
		CORRECTIONS=AIR_DENSITY_CORR;
		BEGIN_DATA
			-60.00		8.3517E-03
			-30.00		10.883E-03
			30.00		10.246E-03
			60.00		6.7794E-03
		END_DATA
	END_SCAN  13
	BEGIN_SCAN  14
		TASK_NAME=MODE_INTERVAL
		PROGRAM=BeamAdjust 1.2
		MEAS_DATE=07-Oct-2010 14:11:48
		LINAC=A4
		MODALITY=X
		INPLANE_AXIS_DIR=TARGET_GUN
		CROSSPLANE_AXIS_DIR=LEFT_RIGHT
		DEPTH_AXIS_DIR=UP_DOWN
		ENERGY=6.00
		SSD=950.00
		WEDGE=None
		FIELD_INPLANE=100.00
		FIELD_CROSSPLANE=100.00
		FIELD_TYPE=RECTANGULAR
		GANTRY=0.00
		GANTRY_UPRIGHT_POSITION=0
		GANTRY_ROTATION=CW
		COLL_ANGLE=90.00
		COLL_OFFSET_INPLANE=0.00
		COLL_OFFSET_CROSSPLANE=0.00
		SCAN_DEVICE=STARCHECK
		ELECTROMETER=2D_ARRAY_INTERFACE
		DETECTOR=STARCHECK
		SCAN_CURVETYPE=INPLANE_PROFILE
		SCAN_DEPTH=0.00
		SCAN_OFFAXIS_CROSSPLANE=130.00
		SCAN_ANGLE=0.00
		SCAN_DIAGONAL=NOT_DIAGONAL
		MEAS_PRESET=TIME_PRESET
		MEAS_TIME=10.000
		MEAS_UNIT=GY
		PRESSURE=1013.25
		TEMPERATURE=20.00
		NORM_TEMPERATURE=20.00
		CORRECTION_FACTOR=1.0000
		CORRECTIONS=AIR_DENSITY_CORR;
		BEGIN_DATA
			-130.00		2.0107E-03
			-125.00		2.5300E-03
			-120.00		2.7874E-03
			-115.00		2.8634E-03
			-110.00		2.8311E-03
			-105.00		2.9531E-03
			-100.00		3.0833E-03
			-95.00		3.2706E-03
			-90.00		3.1071E-03
			-85.00		3.8417E-03
			-80.00		3.7197E-03
			-75.00		3.8996E-03
			-70.00		4.0531E-03
			-65.00		3.9067E-03
			-60.00		4.8199E-03
			-55.00		4.5200E-03
			-50.00		4.8275E-03
			-45.00		5.0514E-03
			-40.00		5.1816E-03
			-35.00		5.3734E-03
			-30.00		5.2340E-03
			-25.00		5.2341E-03
			-20.00		5.7875E-03
			-15.00		5.0372E-03
			-10.00		4.8952E-03
			-5.00		6.3467E-03
			0.00		5.8774E-03
			5.00		5.4306E-03
			10.00		5.7002E-03
			15.00		5.3562E-03
			20.00		5.8352E-03
			25.00		5.6155E-03
			30.00		5.0816E-03
			35.00		5.0747E-03
			40.00		5.6077E-03
			45.00		4.8438E-03
			50.00		4.5847E-03
			55.00		4.9434E-03
			60.00		4.5648E-03
			65.00		3.8948E-03
			70.00		3.8992E-03
			75.00		3.9153E-03
			80.00		3.7551E-03
			85.00		3.7611E-03
			90.00		3.9734E-03
			95.00		3.3148E-03
			100.00		3.2363E-03
			105.00		2.7728E-03
			110.00		2.5807E-03
			115.00		2.6312E-03
			120.00		2.4646E-03
			125.00		2.2403E-03
			130.00		2.2486E-03
		END_DATA
	END_SCAN  14
	BEGIN_SCAN  15
		TASK_NAME=MODE_INTERVAL
		PROGRAM=BeamAdjust 1.2
		MEAS_DATE=07-Oct-2010 14:11:48
		LINAC=A4
		MODALITY=X
		INPLANE_AXIS_DIR=TARGET_GUN
		CROSSPLANE_AXIS_DIR=LEFT_RIGHT
		DEPTH_AXIS_DIR=UP_DOWN
		ENERGY=6.00
		SSD=950.00
		WEDGE=None
		FIELD_INPLANE=100.00
		FIELD_CROSSPLANE=100.00
		FIELD_TYPE=RECTANGULAR
		GANTRY=0.00
		GANTRY_UPRIGHT_POSITION=0
		GANTRY_ROTATION=CW
		COLL_ANGLE=90.00
		COLL_OFFSET_INPLANE=0.00
		COLL_OFFSET_CROSSPLANE=0.00
		SCAN_DEVICE=STARCHECK
		ELECTROMETER=2D_ARRAY_INTERFACE
		DETECTOR=STARCHECK
		SCAN_CURVETYPE=INPLANE_PROFILE
		SCAN_DEPTH=0.00
		SCAN_OFFAXIS_CROSSPLANE=0.00
		SCAN_ANGLE=0.00
		SCAN_DIAGONAL=FIRST_DIAGONAL
		MEAS_PRESET=TIME_PRESET
		MEAS_TIME=10.000
		MEAS_UNIT=GY
		PRESSURE=1013.25
		TEMPERATURE=20.00
		NORM_TEMPERATURE=20.00
		CORRECTION_FACTOR=1.0000
		CORRECTIONS=AIR_DENSITY_CORR;
		BEGIN_DATA
			-172.40		2.8543E-03
			-169.40		2.9577E-03
			-166.40		3.8695E-03
			-163.40		3.8659E-03
			-160.40		4.2414E-03
			-157.40		4.1526E-03
			-154.40		4.7059E-03
			-151.40		4.3982E-03
			-148.40		5.0867E-03
			-145.40		5.2373E-03
			-142.40		5.8348E-03
			-139.40		6.6665E-03
			-136.40		6.6067E-03
			-133.40		7.0179E-03
			-130.40		7.9406E-03
			-127.40		8.4193E-03
			-124.40		8.3020E-03
			-121.40		9.3447E-03
			-118.40		11.006E-03
			-115.40		11.395E-03
			-112.40		12.759E-03
			-109.40		13.690E-03
			-106.40		14.856E-03
			-103.40		15.553E-03
			-100.40		17.255E-03
			-97.40		19.673E-03
			-94.40		21.895E-03
			-91.40		24.426E-03
			-88.40		27.883E-03
			-85.40		31.876E-03
			-82.40		38.433E-03
			-79.40		50.423E-03
			-76.40		82.960E-03
			-73.40		200.10E-03
			-70.40		379.10E-03
			-67.40		523.34E-03
			-64.40		595.94E-03
			-61.40		622.81E-03
			-58.40		635.56E-03
			-55.40		643.89E-03
			-52.40		649.22E-03
			-49.40		653.24E-03
			-46.40		655.17E-03
			-43.40		657.06E-03
			-40.40		659.61E-03
			-37.40		664.17E-03
			-34.40		663.05E-03
			-31.40		664.57E-03
			-28.40		663.62E-03
			-25.40		666.12E-03
			-22.40		667.08E-03
			-19.40		668.07E-03
			-16.40		670.53E-03
			-13.40		671.45E-03
			0.00		669.76E-03
			13.40		670.49E-03
			16.40		666.78E-03
			19.40		666.83E-03
			22.40		665.48E-03
			25.40		664.51E-03
			28.40		663.02E-03
			31.40		659.81E-03
			34.40		656.24E-03
			37.40		658.37E-03
			40.40		654.59E-03
			43.40		649.98E-03
			46.40		646.21E-03
			49.40		637.11E-03
			52.40		624.85E-03
			55.40		592.60E-03
			58.40		519.21E-03
			61.40		382.86E-03
			64.40		225.37E-03
			67.40		107.77E-03
			70.40		58.924E-03
			73.40		43.045E-03
			76.40		35.436E-03
			79.40		29.954E-03
			82.40		26.561E-03
			85.40		23.651E-03
			88.40		21.576E-03
			91.40		18.763E-03
			94.40		17.222E-03
			97.40		16.077E-03
			100.40		14.277E-03
			103.40		13.264E-03
			106.40		12.340E-03
			109.40		11.311E-03
			112.40		9.6740E-03
			115.40		9.2565E-03
			118.40		8.8383E-03
			121.40		7.7235E-03
			124.40		7.3823E-03
			127.40		6.9802E-03
			130.40		6.7994E-03
			133.40		5.7738E-03
			136.40		4.7383E-03
			139.40		4.5923E-03
			142.40		4.5124E-03
			145.40		4.2750E-03
			148.40		4.2434E-03
			151.40		3.5492E-03
			154.40		3.6871E-03
			157.40		3.3841E-03
			160.40		3.0229E-03
			163.40		2.3773E-03
			166.40		2.8394E-03
			169.40		2.5938E-03
			172.40		2.4236E-03
		END_DATA
	END_SCAN  15
	BEGIN_SCAN  16
		TASK_NAME=MODE_INTERVAL
		PROGRAM=BeamAdjust 1.2
		MEAS_DATE=07-Oct-2010 14:11:48
		LINAC=A4
		MODALITY=X
		INPLANE_AXIS_DIR=GUN_TARGET
		CROSSPLANE_AXIS_DIR=LEFT_RIGHT
		DEPTH_AXIS_DIR=UP_DOWN
		ENERGY=6.00
		SSD=950.00
		WEDGE=None
		FIELD_INPLANE=100.00
		FIELD_CROSSPLANE=100.00
		FIELD_TYPE=RECTANGULAR
		GANTRY=0.00
		GANTRY_UPRIGHT_POSITION=0
		GANTRY_ROTATION=CW
		COLL_ANGLE=90.00
		COLL_OFFSET_INPLANE=0.00
		COLL_OFFSET_CROSSPLANE=0.00
		SCAN_DEVICE=STARCHECK
		ELECTROMETER=2D_ARRAY_INTERFACE
		DETECTOR=STARCHECK
		SCAN_CURVETYPE=INPLANE_PROFILE
		SCAN_DEPTH=0.00
		SCAN_OFFAXIS_CROSSPLANE=0.00
		SCAN_ANGLE=0.00
		SCAN_DIAGONAL=SECOND_DIAGONAL
		MEAS_PRESET=TIME_PRESET
		MEAS_TIME=10.000
		MEAS_UNIT=GY
		PRESSURE=1013.25
		TEMPERATURE=20.00
		NORM_TEMPERATURE=20.00
		CORRECTION_FACTOR=1.0000
		CORRECTIONS=AIR_DENSITY_CORR;
		BEGIN_DATA
			-172.40		3.0495E-03
			-169.40		3.1410E-03
			-166.40		2.8101E-03
			-163.40		3.4130E-03
			-160.40		3.5911E-03
			-157.40		3.6732E-03
			-154.40		4.2969E-03
			-151.40		5.0523E-03
			-148.40		4.7240E-03
			-145.40		5.2866E-03
			-142.40		5.6316E-03
			-139.40		5.4164E-03
			-136.40		6.1127E-03
			-133.40		7.3053E-03
			-130.40		7.0998E-03
			-127.40		8.0858E-03
			-124.40		9.0163E-03
			-121.40		9.7185E-03
			-118.40		10.240E-03
			-115.40		10.730E-03
			-112.40		11.539E-03
			-109.40		13.727E-03
			-106.40		14.369E-03
			-103.40		15.577E-03
			-100.40		17.586E-03
			-97.40		19.008E-03
			-94.40		20.811E-03
			-91.40		23.614E-03
			-88.40		25.863E-03
			-85.40		29.558E-03
			-82.40		35.552E-03
			-79.40		45.130E-03
			-76.40		66.546E-03
			-73.40		144.14E-03
			-70.40		308.01E-03
			-67.40		471.72E-03
			-64.40		578.64E-03
			-61.40		619.61E-03
			-58.40		638.27E-03
			-55.40		646.41E-03
			-52.40		655.33E-03
			-49.40		658.61E-03
			-46.40		661.26E-03
			-43.40		663.93E-03
			-40.40		665.49E-03
			-37.40		667.94E-03
			-34.40		666.71E-03
			-31.40		667.51E-03
			-28.40		669.75E-03
			-25.40		668.10E-03
			-22.40		666.47E-03
			-19.40		670.84E-03
			-16.40		671.84E-03
			-13.40		673.34E-03
			0.00		669.76E-03
			13.40		669.95E-03
			16.40		667.33E-03
			19.40		664.57E-03
			22.40		662.01E-03
			25.40		661.61E-03
			28.40		660.39E-03
			31.40		657.94E-03
			34.40		654.22E-03
			37.40		653.84E-03
			40.40		651.20E-03
			43.40		648.25E-03
			46.40		644.47E-03
			49.40		637.03E-03
			52.40		622.25E-03
			55.40		596.74E-03
			58.40		535.03E-03
			61.40		408.95E-03
			64.40		248.70E-03
			67.40		118.55E-03
			70.40		62.647E-03
			73.40		43.640E-03
			76.40		35.302E-03
			79.40		30.496E-03
			82.40		27.092E-03
			85.40		24.505E-03
			88.40		21.702E-03
			91.40		19.873E-03
			94.40		17.953E-03
			97.40		16.303E-03
			100.40		14.140E-03
			103.40		12.982E-03
			106.40		12.272E-03
			109.40		11.050E-03
			112.40		10.307E-03
			115.40		9.5469E-03
			118.40		8.6097E-03
			121.40		8.5066E-03
			124.40		7.2569E-03
			127.40		6.7686E-03
			130.40		6.8097E-03
			133.40		6.1283E-03
			136.40		5.4421E-03
			139.40		5.8863E-03
			142.40		5.0812E-03
			145.40		5.1912E-03
			148.40		4.7629E-03
			151.40		3.8197E-03
			154.40		3.7991E-03
			157.40		3.8939E-03
			160.40		3.6655E-03
			163.40		4.4982E-03
			166.40		3.2192E-03
			169.40		2.7440E-03
			172.40		2.3344E-03
		END_DATA
	END_SCAN  16
END_SCAN_DATA
