BEGIN_SCAN_DATA
	FORMAT=CC-Export V1.9                  
	FILE_CREATION_DATE=07-Oct-2010 14:11:16
	LAST_MODIFIED=07-Oct-2010 14:11:16
	BEGIN_SCAN  1
		TASK_NAME=MODE_INTERVAL
		PROGRAM=BeamAdjust 1.2
		MEAS_DATE=07-Oct-2010 14:11:15
		LINAC=A4
		MODALITY=X
		INPLANE_AXIS_DIR=TARGET_GUN
		CROSSPLANE_AXIS_DIR=LEFT_RIGHT
		DEPTH_AXIS_DIR=UP_DOWN
		ENERGY=6.00
		SSD=950.00
		WEDGE=None
		FIELD_INPLANE=100.00
		FIELD_CROSSPLANE=100.00
		FIELD_TYPE=RECTANGULAR
		GANTRY=0.00
		GANTRY_UPRIGHT_POSITION=0
		GANTRY_ROTATION=CW
		COLL_ANGLE=90.00
		COLL_OFFSET_INPLANE=0.00
		COLL_OFFSET_CROSSPLANE=0.00
		SCAN_DEVICE=STARCHECK
		ELECTROMETER=2D_ARRAY_INTERFACE
		DETECTOR=STARCHECK
		SCAN_CURVETYPE=CROSSPLANE_PROFILE
		SCAN_DEPTH=0.00
		SCAN_OFFAXIS_INPLANE=-130.00
		SCAN_ANGLE=0.00
		SCAN_DIAGONAL=NOT_DIAGONAL
		MEAS_PRESET=TIME_PRESET
		MEAS_TIME=10.000
		MEAS_UNIT=GY
		PRESSURE=1013.25
		TEMPERATURE=20.00
		NORM_TEMPERATURE=20.00
		CORRECTION_FACTOR=1.0000
		CORRECTIONS=AIR_DENSITY_CORR;
		BEGIN_DATA
			-130.00		2.5535E-03
			-80.00		4.5392E-03
			-40.00		8.1647E-03
			40.00		7.6509E-03
			80.00		4.1455E-03
			130.00		2.4536E-03
		END_DATA
	END_SCAN  1
	BEGIN_SCAN  2
		TASK_NAME=MODE_INTERVAL
		PROGRAM=BeamAdjust 1.2
		MEAS_DATE=07-Oct-2010 14:11:15
		LINAC=A4
		MODALITY=X
		INPLANE_AXIS_DIR=TARGET_GUN
		CROSSPLANE_AXIS_DIR=LEFT_RIGHT
		DEPTH_AXIS_DIR=UP_DOWN
		ENERGY=6.00
		SSD=950.00
		WEDGE=None
		FIELD_INPLANE=100.00
		FIELD_CROSSPLANE=100.00
		FIELD_TYPE=RECTANGULAR
		GANTRY=0.00
		GANTRY_UPRIGHT_POSITION=0
		GANTRY_ROTATION=CW
		COLL_ANGLE=90.00
		COLL_OFFSET_INPLANE=0.00
		COLL_OFFSET_CROSSPLANE=0.00
		SCAN_DEVICE=STARCHECK
		ELECTROMETER=2D_ARRAY_INTERFACE
		DETECTOR=STARCHECK
		SCAN_CURVETYPE=CROSSPLANE_PROFILE
		SCAN_DEPTH=0.00
		SCAN_OFFAXIS_INPLANE=-100.00
		SCAN_ANGLE=0.00
		SCAN_DIAGONAL=NOT_DIAGONAL
		MEAS_PRESET=TIME_PRESET
		MEAS_TIME=10.000
		MEAS_UNIT=GY
		PRESSURE=1013.25
		TEMPERATURE=20.00
		NORM_TEMPERATURE=20.00
		CORRECTION_FACTOR=1.0000
		CORRECTIONS=AIR_DENSITY_CORR;
		BEGIN_DATA
			-60.00		11.380E-03
			-30.00		16.052E-03
			30.00		16.779E-03
			60.00		11.307E-03
		END_DATA
	END_SCAN  2
	BEGIN_SCAN  3
		TASK_NAME=MODE_INTERVAL
		PROGRAM=BeamAdjust 1.2
		MEAS_DATE=07-Oct-2010 14:11:15
		LINAC=A4
		MODALITY=X
		INPLANE_AXIS_DIR=TARGET_GUN
		CROSSPLANE_AXIS_DIR=LEFT_RIGHT
		DEPTH_AXIS_DIR=UP_DOWN
		ENERGY=6.00
		SSD=950.00
		WEDGE=None
		FIELD_INPLANE=100.00
		FIELD_CROSSPLANE=100.00
		FIELD_TYPE=RECTANGULAR
		GANTRY=0.00
		GANTRY_UPRIGHT_POSITION=0
		GANTRY_ROTATION=CW
		COLL_ANGLE=90.00
		COLL_OFFSET_INPLANE=0.00
		COLL_OFFSET_CROSSPLANE=0.00
		SCAN_DEVICE=STARCHECK
		ELECTROMETER=2D_ARRAY_INTERFACE
		DETECTOR=STARCHECK
		SCAN_CURVETYPE=CROSSPLANE_PROFILE
		SCAN_DEPTH=0.00
		SCAN_OFFAXIS_INPLANE=-50.00
		SCAN_ANGLE=0.00
		SCAN_DIAGONAL=NOT_DIAGONAL
		MEAS_PRESET=TIME_PRESET
		MEAS_TIME=10.000
		MEAS_UNIT=GY
		PRESSURE=1013.25
		TEMPERATURE=20.00
		NORM_TEMPERATURE=20.00
		CORRECTION_FACTOR=1.0000
		CORRECTIONS=AIR_DENSITY_CORR;
		BEGIN_DATA
			-30.00		630.70E-03
			-15.00		627.84E-03
			15.00		636.09E-03
			30.00		633.12E-03
		END_DATA
	END_SCAN  3
	BEGIN_SCAN  4
		TASK_NAME=MODE_INTERVAL
		PROGRAM=BeamAdjust 1.2
		MEAS_DATE=07-Oct-2010 14:11:15
		LINAC=A4
		MODALITY=X
		INPLANE_AXIS_DIR=TARGET_GUN
		CROSSPLANE_AXIS_DIR=LEFT_RIGHT
		DEPTH_AXIS_DIR=UP_DOWN
		ENERGY=6.00
		SSD=950.00
		WEDGE=None
		FIELD_INPLANE=100.00
		FIELD_CROSSPLANE=100.00
		FIELD_TYPE=RECTANGULAR
		GANTRY=0.00
		GANTRY_UPRIGHT_POSITION=0
		GANTRY_ROTATION=CW
		COLL_ANGLE=90.00
		COLL_OFFSET_INPLANE=0.00
		COLL_OFFSET_CROSSPLANE=0.00
		SCAN_DEVICE=STARCHECK
		ELECTROMETER=2D_ARRAY_INTERFACE
		DETECTOR=STARCHECK
		SCAN_CURVETYPE=CROSSPLANE_PROFILE
		SCAN_DEPTH=0.00
		SCAN_OFFAXIS_INPLANE=0.00
		SCAN_ANGLE=0.00
		SCAN_DIAGONAL=NOT_DIAGONAL
		MEAS_PRESET=TIME_PRESET
		MEAS_TIME=10.000
		MEAS_UNIT=GY
		PRESSURE=1013.25
		TEMPERATURE=20.00
		NORM_TEMPERATURE=20.00
		CORRECTION_FACTOR=1.0000
		CORRECTIONS=AIR_DENSITY_CORR;
		BEGIN_DATA
			-126.00		6.2738E-03
			-123.00		7.5951E-03
			-120.00		7.7247E-03
			-117.00		9.0685E-03
			-114.00		9.0736E-03
			-111.00		9.1741E-03
			-108.00		10.461E-03
			-105.00		11.014E-03
			-102.00		11.763E-03
			-99.00		12.667E-03
			-96.00		13.807E-03
			-93.00		15.271E-03
			-90.00		16.356E-03
			-87.00		18.018E-03
			-84.00		20.220E-03
			-81.00		21.874E-03
			-78.00		23.998E-03
			-75.00		27.528E-03
			-72.00		30.237E-03
			-69.00		34.235E-03
			-66.00		39.521E-03
			-63.00		45.457E-03
			-60.00		54.690E-03
			-57.00		73.083E-03
			-54.00		115.11E-03
			-51.00		293.15E-03
			-48.00		556.25E-03
			-45.00		617.74E-03
			-42.00		636.56E-03
			-39.00		649.00E-03
			-36.00		655.44E-03
			-33.00		655.82E-03
			-30.00		657.21E-03
			-27.00		659.89E-03
			-24.00		662.32E-03
			-21.00		661.73E-03
			-18.00		667.54E-03
			-15.00		667.41E-03
			-12.00		667.11E-03
			-9.00		670.49E-03
			-6.00		670.39E-03
			0.00		670.17E-03
			6.00		672.39E-03
			9.00		670.75E-03
			12.00		668.01E-03
			15.00		667.20E-03
			18.00		666.54E-03
			21.00		664.70E-03
			24.00		661.30E-03
			27.00		665.23E-03
			30.00		663.49E-03
			33.00		661.11E-03
			36.00		657.24E-03
			39.00		651.41E-03
			42.00		640.21E-03
			45.00		615.06E-03
			48.00		524.48E-03
			51.00		230.85E-03
			54.00		101.19E-03
			57.00		68.351E-03
			60.00		53.013E-03
			63.00		43.697E-03
			66.00		37.583E-03
			69.00		33.052E-03
			72.00		29.101E-03
			75.00		26.349E-03
			78.00		23.446E-03
			81.00		21.314E-03
			84.00		19.484E-03
			87.00		17.460E-03
			90.00		16.487E-03
			93.00		15.102E-03
			96.00		13.107E-03
			99.00		13.043E-03
			102.00		11.695E-03
			105.00		10.626E-03
			108.00		10.318E-03
			111.00		9.1560E-03
			114.00		8.2451E-03
			117.00		8.0435E-03
			120.00		7.2632E-03
			123.00		6.7351E-03
			126.00		7.0383E-03
		END_DATA
	END_SCAN  4
	BEGIN_SCAN  5
		TASK_NAME=MODE_INTERVAL
		PROGRAM=BeamAdjust 1.2
		MEAS_DATE=07-Oct-2010 14:11:16
		LINAC=A4
		MODALITY=X
		INPLANE_AXIS_DIR=TARGET_GUN
		CROSSPLANE_AXIS_DIR=LEFT_RIGHT
		DEPTH_AXIS_DIR=UP_DOWN
		ENERGY=6.00
		SSD=950.00
		WEDGE=None
		FIELD_INPLANE=100.00
		FIELD_CROSSPLANE=100.00
		FIELD_TYPE=RECTANGULAR
		GANTRY=0.00
		GANTRY_UPRIGHT_POSITION=0
		GANTRY_ROTATION=CW
		COLL_ANGLE=90.00
		COLL_OFFSET_INPLANE=0.00
		COLL_OFFSET_CROSSPLANE=0.00
		SCAN_DEVICE=STARCHECK
		ELECTROMETER=2D_ARRAY_INTERFACE
		DETECTOR=STARCHECK
		SCAN_CURVETYPE=CROSSPLANE_PROFILE
		SCAN_DEPTH=0.00
		SCAN_OFFAXIS_INPLANE=50.00
		SCAN_ANGLE=0.00
		SCAN_DIAGONAL=NOT_DIAGONAL
		MEAS_PRESET=TIME_PRESET
		MEAS_TIME=10.000
		MEAS_UNIT=GY
		PRESSURE=1013.25
		TEMPERATURE=20.00
		NORM_TEMPERATURE=20.00
		CORRECTION_FACTOR=1.0000
		CORRECTIONS=AIR_DENSITY_CORR;
		BEGIN_DATA
			-30.00		79.146E-03
			-15.00		81.744E-03
			15.00		78.364E-03
			30.00		77.167E-03
		END_DATA
	END_SCAN  5
	BEGIN_SCAN  6
		TASK_NAME=MODE_INTERVAL
		PROGRAM=BeamAdjust 1.2
		MEAS_DATE=07-Oct-2010 14:11:16
		LINAC=A4
		MODALITY=X
		INPLANE_AXIS_DIR=TARGET_GUN
		CROSSPLANE_AXIS_DIR=LEFT_RIGHT
		DEPTH_AXIS_DIR=UP_DOWN
		ENERGY=6.00
		SSD=950.00
		WEDGE=None
		FIELD_INPLANE=100.00
		FIELD_CROSSPLANE=100.00
		FIELD_TYPE=RECTANGULAR
		GANTRY=0.00
		GANTRY_UPRIGHT_POSITION=0
		GANTRY_ROTATION=CW
		COLL_ANGLE=90.00
		COLL_OFFSET_INPLANE=0.00
		COLL_OFFSET_CROSSPLANE=0.00
		SCAN_DEVICE=STARCHECK
		ELECTROMETER=2D_ARRAY_INTERFACE
		DETECTOR=STARCHECK
		SCAN_CURVETYPE=CROSSPLANE_PROFILE
		SCAN_DEPTH=0.00
		SCAN_OFFAXIS_INPLANE=100.00
		SCAN_ANGLE=0.00
		SCAN_DIAGONAL=NOT_DIAGONAL
		MEAS_PRESET=TIME_PRESET
		MEAS_TIME=10.000
		MEAS_UNIT=GY
		PRESSURE=1013.25
		TEMPERATURE=20.00
		NORM_TEMPERATURE=20.00
		CORRECTION_FACTOR=1.0000
		CORRECTIONS=AIR_DENSITY_CORR;
		BEGIN_DATA
			-60.00		9.1634E-03
			-30.00		13.475E-03
			30.00		13.775E-03
			60.00		7.9548E-03
		END_DATA
	END_SCAN  6
	BEGIN_SCAN  7
		TASK_NAME=MODE_INTERVAL
		PROGRAM=BeamAdjust 1.2
		MEAS_DATE=07-Oct-2010 14:11:16
		LINAC=A4
		MODALITY=X
		INPLANE_AXIS_DIR=TARGET_GUN
		CROSSPLANE_AXIS_DIR=LEFT_RIGHT
		DEPTH_AXIS_DIR=UP_DOWN
		ENERGY=6.00
		SSD=950.00
		WEDGE=None
		FIELD_INPLANE=100.00
		FIELD_CROSSPLANE=100.00
		FIELD_TYPE=RECTANGULAR
		GANTRY=0.00
		GANTRY_UPRIGHT_POSITION=0
		GANTRY_ROTATION=CW
		COLL_ANGLE=90.00
		COLL_OFFSET_INPLANE=0.00
		COLL_OFFSET_CROSSPLANE=0.00
		SCAN_DEVICE=STARCHECK
		ELECTROMETER=2D_ARRAY_INTERFACE
		DETECTOR=STARCHECK
		SCAN_CURVETYPE=CROSSPLANE_PROFILE
		SCAN_DEPTH=0.00
		SCAN_OFFAXIS_INPLANE=130.00
		SCAN_ANGLE=0.00
		SCAN_DIAGONAL=NOT_DIAGONAL
		MEAS_PRESET=TIME_PRESET
		MEAS_TIME=10.000
		MEAS_UNIT=GY
		PRESSURE=1013.25
		TEMPERATURE=20.00
		NORM_TEMPERATURE=20.00
		CORRECTION_FACTOR=1.0000
		CORRECTIONS=AIR_DENSITY_CORR;
		BEGIN_DATA
			-130.00		2.1944E-03
			-80.00		3.7388E-03
			-40.00		6.9395E-03
			40.00		6.7298E-03
			80.00		4.2188E-03
			130.00		2.2338E-03
		END_DATA
	END_SCAN  7
	BEGIN_SCAN  8
		TASK_NAME=MODE_INTERVAL
		PROGRAM=BeamAdjust 1.2
		MEAS_DATE=07-Oct-2010 14:11:16
		LINAC=A4
		MODALITY=X
		INPLANE_AXIS_DIR=TARGET_GUN
		CROSSPLANE_AXIS_DIR=LEFT_RIGHT
		DEPTH_AXIS_DIR=UP_DOWN
		ENERGY=6.00
		SSD=950.00
		WEDGE=None
		FIELD_INPLANE=100.00
		FIELD_CROSSPLANE=100.00
		FIELD_TYPE=RECTANGULAR
		GANTRY=0.00
		GANTRY_UPRIGHT_POSITION=0
		GANTRY_ROTATION=CW
		COLL_ANGLE=90.00
		COLL_OFFSET_INPLANE=0.00
		COLL_OFFSET_CROSSPLANE=0.00
		SCAN_DEVICE=STARCHECK
		ELECTROMETER=2D_ARRAY_INTERFACE
		DETECTOR=STARCHECK
		SCAN_CURVETYPE=INPLANE_PROFILE
		SCAN_DEPTH=0.00
		SCAN_OFFAXIS_CROSSPLANE=-130.00
		SCAN_ANGLE=0.00
		SCAN_DIAGONAL=NOT_DIAGONAL
		MEAS_PRESET=TIME_PRESET
		MEAS_TIME=10.000
		MEAS_UNIT=GY
		PRESSURE=1013.25
		TEMPERATURE=20.00
		NORM_TEMPERATURE=20.00
		CORRECTION_FACTOR=1.0000
		CORRECTIONS=AIR_DENSITY_CORR;
		BEGIN_DATA
			-130.00		2.5535E-03
			-125.00		2.7243E-03
			-120.00		3.4195E-03
			-115.00		3.3716E-03
			-110.00		3.5494E-03
			-105.00		3.7631E-03
			-100.00		4.1640E-03
			-95.00		4.7006E-03
			-90.00		4.7665E-03
			-85.00		4.5479E-03
			-80.00		4.8706E-03
			-75.00		4.9159E-03
			-70.00		5.7155E-03
			-65.00		5.5671E-03
			-60.00		4.9717E-03
			-55.00		6.5785E-03
			-50.00		4.3575E-03
			-45.00		4.8482E-03
			-40.00		5.3967E-03
			-35.00		5.4292E-03
			-30.00		5.2522E-03
			-25.00		5.6280E-03
			-20.00		5.2099E-03
			-15.00		5.2955E-03
			-10.00		5.7494E-03
			-5.00		6.3403E-03
			0.00		6.3439E-03
			5.00		6.4219E-03
			10.00		5.8448E-03
			15.00		5.5775E-03
			20.00		5.8338E-03
			25.00		4.9928E-03
			30.00		5.4557E-03
			35.00		5.4435E-03
			40.00		4.8771E-03
			45.00		4.7803E-03
			50.00		4.6011E-03
			55.00		3.9979E-03
			60.00		4.7245E-03
			65.00		3.8861E-03
			70.00		4.2777E-03
			75.00		3.7904E-03
			80.00		3.1957E-03
			85.00		3.4807E-03
			90.00		3.4446E-03
			95.00		2.8612E-03
			100.00		3.2192E-03
			105.00		2.3530E-03
			110.00		2.1876E-03
			115.00		2.6396E-03
			120.00		2.2123E-03
			125.00		2.2766E-03
			130.00		2.1944E-03
		END_DATA
	END_SCAN  8
	BEGIN_SCAN  9
		TASK_NAME=MODE_INTERVAL
		PROGRAM=BeamAdjust 1.2
		MEAS_DATE=07-Oct-2010 14:11:16
		LINAC=A4
		MODALITY=X
		INPLANE_AXIS_DIR=TARGET_GUN
		CROSSPLANE_AXIS_DIR=LEFT_RIGHT
		DEPTH_AXIS_DIR=UP_DOWN
		ENERGY=6.00
		SSD=950.00
		WEDGE=None
		FIELD_INPLANE=100.00
		FIELD_CROSSPLANE=100.00
		FIELD_TYPE=RECTANGULAR
		GANTRY=0.00
		GANTRY_UPRIGHT_POSITION=0
		GANTRY_ROTATION=CW
		COLL_ANGLE=90.00
		COLL_OFFSET_INPLANE=0.00
		COLL_OFFSET_CROSSPLANE=0.00
		SCAN_DEVICE=STARCHECK
		ELECTROMETER=2D_ARRAY_INTERFACE
		DETECTOR=STARCHECK
		SCAN_CURVETYPE=INPLANE_PROFILE
		SCAN_DEPTH=0.00
		SCAN_OFFAXIS_CROSSPLANE=-100.00
		SCAN_ANGLE=0.00
		SCAN_DIAGONAL=NOT_DIAGONAL
		MEAS_PRESET=TIME_PRESET
		MEAS_TIME=10.000
		MEAS_UNIT=GY
		PRESSURE=1013.25
		TEMPERATURE=20.00
		NORM_TEMPERATURE=20.00
		CORRECTION_FACTOR=1.0000
		CORRECTIONS=AIR_DENSITY_CORR;
		BEGIN_DATA
			-60.00		8.4320E-03
			-30.00		11.040E-03
			30.00		10.061E-03
			60.00		7.5079E-03
		END_DATA
	END_SCAN  9
	BEGIN_SCAN  10
		TASK_NAME=MODE_INTERVAL
		PROGRAM=BeamAdjust 1.2
		MEAS_DATE=07-Oct-2010 14:11:16
		LINAC=A4
		MODALITY=X
		INPLANE_AXIS_DIR=TARGET_GUN
		CROSSPLANE_AXIS_DIR=LEFT_RIGHT
		DEPTH_AXIS_DIR=UP_DOWN
		ENERGY=6.00
		SSD=950.00
		WEDGE=None
		FIELD_INPLANE=100.00
		FIELD_CROSSPLANE=100.00
		FIELD_TYPE=RECTANGULAR
		GANTRY=0.00
		GANTRY_UPRIGHT_POSITION=0
		GANTRY_ROTATION=CW
		COLL_ANGLE=90.00
		COLL_OFFSET_INPLANE=0.00
		COLL_OFFSET_CROSSPLANE=0.00
		SCAN_DEVICE=STARCHECK
		ELECTROMETER=2D_ARRAY_INTERFACE
		DETECTOR=STARCHECK
		SCAN_CURVETYPE=INPLANE_PROFILE
		SCAN_DEPTH=0.00
		SCAN_OFFAXIS_CROSSPLANE=-50.00
		SCAN_ANGLE=0.00
		SCAN_DIAGONAL=NOT_DIAGONAL
		MEAS_PRESET=TIME_PRESET
		MEAS_TIME=10.000
		MEAS_UNIT=GY
		PRESSURE=1013.25
		TEMPERATURE=20.00
		NORM_TEMPERATURE=20.00
		CORRECTION_FACTOR=1.0000
		CORRECTIONS=AIR_DENSITY_CORR;
		BEGIN_DATA
			-30.00		400.99E-03
			-15.00		396.17E-03
			15.00		384.85E-03
			30.00		371.44E-03
		END_DATA
	END_SCAN  10
	BEGIN_SCAN  11
		TASK_NAME=MODE_INTERVAL
		PROGRAM=BeamAdjust 1.2
		MEAS_DATE=07-Oct-2010 14:11:16
		LINAC=A4
		MODALITY=X
		INPLANE_AXIS_DIR=TARGET_GUN
		CROSSPLANE_AXIS_DIR=LEFT_RIGHT
		DEPTH_AXIS_DIR=UP_DOWN
		ENERGY=6.00
		SSD=950.00
		WEDGE=None
		FIELD_INPLANE=100.00
		FIELD_CROSSPLANE=100.00
		FIELD_TYPE=RECTANGULAR
		GANTRY=0.00
		GANTRY_UPRIGHT_POSITION=0
		GANTRY_ROTATION=CW
		COLL_ANGLE=90.00
		COLL_OFFSET_INPLANE=0.00
		COLL_OFFSET_CROSSPLANE=0.00
		SCAN_DEVICE=STARCHECK
		ELECTROMETER=2D_ARRAY_INTERFACE
		DETECTOR=STARCHECK
		SCAN_CURVETYPE=INPLANE_PROFILE
		SCAN_DEPTH=0.00
		SCAN_OFFAXIS_CROSSPLANE=0.00
		SCAN_ANGLE=0.00
		SCAN_DIAGONAL=NOT_DIAGONAL
		MEAS_PRESET=TIME_PRESET
		MEAS_TIME=10.000
		MEAS_UNIT=GY
		PRESSURE=1013.25
		TEMPERATURE=20.00
		NORM_TEMPERATURE=20.00
		CORRECTION_FACTOR=1.0000
		CORRECTIONS=AIR_DENSITY_CORR;
		BEGIN_DATA
			-126.00		9.8782E-03
			-123.00		9.7685E-03
			-120.00		11.487E-03
			-117.00		13.168E-03
			-114.00		13.082E-03
			-111.00		14.088E-03
			-108.00		15.294E-03
			-105.00		16.409E-03
			-102.00		18.084E-03
			-99.00		18.684E-03
			-96.00		20.550E-03
			-93.00		23.061E-03
			-90.00		24.558E-03
			-87.00		26.862E-03
			-84.00		29.376E-03
			-81.00		32.153E-03
			-78.00		35.502E-03
			-75.00		39.638E-03
			-72.00		43.487E-03
			-69.00		49.336E-03
			-66.00		57.997E-03
			-63.00		72.502E-03
			-60.00		104.63E-03
			-57.00		209.44E-03
			-54.00		473.20E-03
			-51.00		606.66E-03
			-48.00		639.79E-03
			-45.00		650.99E-03
			-42.00		657.09E-03
			-39.00		661.43E-03
			-36.00		663.77E-03
			-33.00		665.83E-03
			-30.00		667.72E-03
			-27.00		668.26E-03
			-24.00		667.93E-03
			-21.00		668.35E-03
			-18.00		674.46E-03
			-15.00		670.21E-03
			-12.00		669.48E-03
			-9.00		669.52E-03
			-6.00		667.44E-03
			0.00		670.17E-03
			6.00		673.30E-03
			9.00		669.99E-03
			12.00		667.63E-03
			15.00		666.24E-03
			18.00		663.77E-03
			21.00		662.76E-03
			24.00		658.37E-03
			27.00		658.32E-03
			30.00		652.40E-03
			33.00		647.00E-03
			36.00		638.95E-03
			39.00		612.19E-03
			42.00		530.07E-03
			45.00		270.04E-03
			48.00		124.19E-03
			51.00		78.788E-03
			54.00		60.184E-03
			57.00		51.259E-03
			60.00		45.540E-03
			63.00		39.628E-03
			66.00		36.694E-03
			69.00		32.662E-03
			72.00		29.750E-03
			75.00		27.213E-03
			78.00		24.173E-03
			81.00		22.400E-03
			84.00		21.268E-03
			87.00		19.605E-03
			90.00		18.203E-03
			93.00		16.773E-03
			96.00		15.832E-03
			99.00		14.414E-03
			102.00		13.407E-03
			105.00		12.311E-03
			108.00		11.823E-03
			111.00		10.758E-03
			114.00		10.520E-03
			117.00		9.5233E-03
			120.00		8.8215E-03
			123.00		8.4429E-03
			126.00		7.7320E-03
		END_DATA
	END_SCAN  11
	BEGIN_SCAN  12
		TASK_NAME=MODE_INTERVAL
		PROGRAM=BeamAdjust 1.2
		MEAS_DATE=07-Oct-2010 14:11:16
		LINAC=A4
		MODALITY=X
		INPLANE_AXIS_DIR=TARGET_GUN
		CROSSPLANE_AXIS_DIR=LEFT_RIGHT
		DEPTH_AXIS_DIR=UP_DOWN
		ENERGY=6.00
		SSD=950.00
		WEDGE=None
		FIELD_INPLANE=100.00
		FIELD_CROSSPLANE=100.00
		FIELD_TYPE=RECTANGULAR
		GANTRY=0.00
		GANTRY_UPRIGHT_POSITION=0
		GANTRY_ROTATION=CW
		COLL_ANGLE=90.00
		COLL_OFFSET_INPLANE=0.00
		COLL_OFFSET_CROSSPLANE=0.00
		SCAN_DEVICE=STARCHECK
		ELECTROMETER=2D_ARRAY_INTERFACE
		DETECTOR=STARCHECK
		SCAN_CURVETYPE=INPLANE_PROFILE
		SCAN_DEPTH=0.00
		SCAN_OFFAXIS_CROSSPLANE=50.00
		SCAN_ANGLE=0.00
		SCAN_DIAGONAL=NOT_DIAGONAL
		MEAS_PRESET=TIME_PRESET
		MEAS_TIME=10.000
		MEAS_UNIT=GY
		PRESSURE=1013.25
		TEMPERATURE=20.00
		NORM_TEMPERATURE=20.00
		CORRECTION_FACTOR=1.0000
		CORRECTIONS=AIR_DENSITY_CORR;
		BEGIN_DATA
			-30.00		326.55E-03
			-15.00		334.58E-03
			15.00		340.74E-03
			30.00		339.17E-03
		END_DATA
	END_SCAN  12
	BEGIN_SCAN  13
		TASK_NAME=MODE_INTERVAL
		PROGRAM=BeamAdjust 1.2
		MEAS_DATE=07-Oct-2010 14:11:16
		LINAC=A4
		MODALITY=X
		INPLANE_AXIS_DIR=TARGET_GUN
		CROSSPLANE_AXIS_DIR=LEFT_RIGHT
		DEPTH_AXIS_DIR=UP_DOWN
		ENERGY=6.00
		SSD=950.00
		WEDGE=None
		FIELD_INPLANE=100.00
		FIELD_CROSSPLANE=100.00
		FIELD_TYPE=RECTANGULAR
		GANTRY=0.00
		GANTRY_UPRIGHT_POSITION=0
		GANTRY_ROTATION=CW
		COLL_ANGLE=90.00
		COLL_OFFSET_INPLANE=0.00
		COLL_OFFSET_CROSSPLANE=0.00
		SCAN_DEVICE=STARCHECK
		ELECTROMETER=2D_ARRAY_INTERFACE
		DETECTOR=STARCHECK
		SCAN_CURVETYPE=INPLANE_PROFILE
		SCAN_DEPTH=0.00
		SCAN_OFFAXIS_CROSSPLANE=100.00
		SCAN_ANGLE=0.00
		SCAN_DIAGONAL=NOT_DIAGONAL
		MEAS_PRESET=TIME_PRESET
		MEAS_TIME=10.000
		MEAS_UNIT=GY
		PRESSURE=1013.25
		TEMPERATURE=20.00
		NORM_TEMPERATURE=20.00
		CORRECTION_FACTOR=1.0000
		CORRECTIONS=AIR_DENSITY_CORR;
		BEGIN_DATA
			-60.00		8.5703E-03
			-30.00		10.400E-03
			30.00		10.047E-03
			60.00		7.5269E-03
		END_DATA
	END_SCAN  13
	BEGIN_SCAN  14
		TASK_NAME=MODE_INTERVAL
		PROGRAM=BeamAdjust 1.2
		MEAS_DATE=07-Oct-2010 14:11:16
		LINAC=A4
		MODALITY=X
		INPLANE_AXIS_DIR=TARGET_GUN
		CROSSPLANE_AXIS_DIR=LEFT_RIGHT
		DEPTH_AXIS_DIR=UP_DOWN
		ENERGY=6.00
		SSD=950.00
		WEDGE=None
		FIELD_INPLANE=100.00
		FIELD_CROSSPLANE=100.00
		FIELD_TYPE=RECTANGULAR
		GANTRY=0.00
		GANTRY_UPRIGHT_POSITION=0
		GANTRY_ROTATION=CW
		COLL_ANGLE=90.00
		COLL_OFFSET_INPLANE=0.00
		COLL_OFFSET_CROSSPLANE=0.00
		SCAN_DEVICE=STARCHECK
		ELECTROMETER=2D_ARRAY_INTERFACE
		DETECTOR=STARCHECK
		SCAN_CURVETYPE=INPLANE_PROFILE
		SCAN_DEPTH=0.00
		SCAN_OFFAXIS_CROSSPLANE=130.00
		SCAN_ANGLE=0.00
		SCAN_DIAGONAL=NOT_DIAGONAL
		MEAS_PRESET=TIME_PRESET
		MEAS_TIME=10.000
		MEAS_UNIT=GY
		PRESSURE=1013.25
		TEMPERATURE=20.00
		NORM_TEMPERATURE=20.00
		CORRECTION_FACTOR=1.0000
		CORRECTIONS=AIR_DENSITY_CORR;
		BEGIN_DATA
			-130.00		2.4536E-03
			-125.00		2.7526E-03
			-120.00		2.4373E-03
			-115.00		2.8175E-03
			-110.00		2.6806E-03
			-105.00		3.1303E-03
			-100.00		3.1279E-03
			-95.00		2.9587E-03
			-90.00		2.9131E-03
			-85.00		3.8520E-03
			-80.00		3.9704E-03
			-75.00		3.5450E-03
			-70.00		4.0398E-03
			-65.00		4.2772E-03
			-60.00		5.1660E-03
			-55.00		4.2779E-03
			-50.00		4.5913E-03
			-45.00		4.9717E-03
			-40.00		4.8344E-03
			-35.00		5.4518E-03
			-30.00		5.7566E-03
			-25.00		4.8466E-03
			-20.00		5.7580E-03
			-15.00		5.3576E-03
			-10.00		4.9882E-03
			-5.00		6.0290E-03
			0.00		6.0229E-03
			5.00		5.4130E-03
			10.00		6.4228E-03
			15.00		5.3591E-03
			20.00		5.3542E-03
			25.00		5.6645E-03
			30.00		4.6762E-03
			35.00		5.2361E-03
			40.00		5.2988E-03
			45.00		4.6297E-03
			50.00		4.6289E-03
			55.00		4.9051E-03
			60.00		4.5795E-03
			65.00		3.8787E-03
			70.00		3.9743E-03
			75.00		3.8521E-03
			80.00		4.6233E-03
			85.00		3.8301E-03
			90.00		2.9657E-03
			95.00		3.2509E-03
			100.00		3.6328E-03
			105.00		2.7476E-03
			110.00		2.5881E-03
			115.00		2.7977E-03
			120.00		2.4778E-03
			125.00		2.1724E-03
			130.00		2.2338E-03
		END_DATA
	END_SCAN  14
	BEGIN_SCAN  15
		TASK_NAME=MODE_INTERVAL
		PROGRAM=BeamAdjust 1.2
		MEAS_DATE=07-Oct-2010 14:11:16
		LINAC=A4
		MODALITY=X
		INPLANE_AXIS_DIR=TARGET_GUN
		CROSSPLANE_AXIS_DIR=LEFT_RIGHT
		DEPTH_AXIS_DIR=UP_DOWN
		ENERGY=6.00
		SSD=950.00
		WEDGE=None
		FIELD_INPLANE=100.00
		FIELD_CROSSPLANE=100.00
		FIELD_TYPE=RECTANGULAR
		GANTRY=0.00
		GANTRY_UPRIGHT_POSITION=0
		GANTRY_ROTATION=CW
		COLL_ANGLE=90.00
		COLL_OFFSET_INPLANE=0.00
		COLL_OFFSET_CROSSPLANE=0.00
		SCAN_DEVICE=STARCHECK
		ELECTROMETER=2D_ARRAY_INTERFACE
		DETECTOR=STARCHECK
		SCAN_CURVETYPE=INPLANE_PROFILE
		SCAN_DEPTH=0.00
		SCAN_OFFAXIS_CROSSPLANE=0.00
		SCAN_ANGLE=0.00
		SCAN_DIAGONAL=FIRST_DIAGONAL
		MEAS_PRESET=TIME_PRESET
		MEAS_TIME=10.000
		MEAS_UNIT=GY
		PRESSURE=1013.25
		TEMPERATURE=20.00
		NORM_TEMPERATURE=20.00
		CORRECTION_FACTOR=1.0000
		CORRECTIONS=AIR_DENSITY_CORR;
		BEGIN_DATA
			-172.40		2.8438E-03
			-169.40		3.1929E-03
			-166.40		3.8575E-03
			-163.40		4.0421E-03
			-160.40		4.8277E-03
			-157.40		4.3866E-03
			-154.40		4.1440E-03
			-151.40		4.0774E-03
			-148.40		5.1254E-03
			-145.40		5.4935E-03
			-142.40		6.1049E-03
			-139.40		6.3001E-03
			-136.40		6.5457E-03
			-133.40		7.2807E-03
			-130.40		7.6730E-03
			-127.40		8.1389E-03
			-124.40		8.6890E-03
			-121.40		9.5935E-03
			-118.40		11.313E-03
			-115.40		11.647E-03
			-112.40		12.308E-03
			-109.40		13.471E-03
			-106.40		15.063E-03
			-103.40		15.838E-03
			-100.40		17.076E-03
			-97.40		19.845E-03
			-94.40		22.140E-03
			-91.40		24.550E-03
			-88.40		28.001E-03
			-85.40		32.176E-03
			-82.40		38.917E-03
			-79.40		51.453E-03
			-76.40		86.396E-03
			-73.40		206.75E-03
			-70.40		381.68E-03
			-67.40		525.03E-03
			-64.40		596.64E-03
			-61.40		623.19E-03
			-58.40		636.00E-03
			-55.40		644.01E-03
			-52.40		649.43E-03
			-49.40		653.26E-03
			-46.40		655.21E-03
			-43.40		657.29E-03
			-40.40		659.72E-03
			-37.40		663.74E-03
			-34.40		663.63E-03
			-31.40		664.68E-03
			-28.40		663.00E-03
			-25.40		665.97E-03
			-22.40		667.33E-03
			-19.40		668.10E-03
			-16.40		670.17E-03
			-13.40		671.42E-03
			0.00		670.17E-03
			13.40		670.39E-03
			16.40		666.09E-03
			19.40		666.73E-03
			22.40		665.27E-03
			25.40		663.83E-03
			28.40		662.26E-03
			31.40		659.66E-03
			34.40		655.69E-03
			37.40		657.13E-03
			40.40		653.82E-03
			43.40		649.27E-03
			46.40		645.48E-03
			49.40		635.62E-03
			52.40		622.08E-03
			55.40		586.30E-03
			58.40		505.07E-03
			61.40		363.40E-03
			64.40		208.98E-03
			67.40		100.85E-03
			70.40		57.364E-03
			73.40		42.032E-03
			76.40		34.681E-03
			79.40		30.055E-03
			82.40		26.123E-03
			85.40		22.957E-03
			88.40		21.506E-03
			91.40		18.677E-03
			94.40		17.175E-03
			97.40		15.618E-03
			100.40		14.092E-03
			103.40		13.459E-03
			106.40		12.106E-03
			109.40		11.135E-03
			112.40		10.134E-03
			115.40		9.0309E-03
			118.40		8.0650E-03
			121.40		7.9255E-03
			124.40		7.2087E-03
			127.40		7.1416E-03
			130.40		6.7609E-03
			133.40		5.7530E-03
			136.40		5.0137E-03
			139.40		4.6204E-03
			142.40		4.6143E-03
			145.40		4.7193E-03
			148.40		4.2790E-03
			151.40		3.3438E-03
			154.40		4.5384E-03
			157.40		3.4673E-03
			160.40		2.4163E-03
			163.40		2.4503E-03
			166.40		2.6594E-03
			169.40		2.5789E-03
			172.40		2.5668E-03
		END_DATA
	END_SCAN  15
	BEGIN_SCAN  16
		TASK_NAME=MODE_INTERVAL
		PROGRAM=BeamAdjust 1.2
		MEAS_DATE=07-Oct-2010 14:11:16
		LINAC=A4
		MODALITY=X
		INPLANE_AXIS_DIR=GUN_TARGET
		CROSSPLANE_AXIS_DIR=LEFT_RIGHT
		DEPTH_AXIS_DIR=UP_DOWN
		ENERGY=6.00
		SSD=950.00
		WEDGE=None
		FIELD_INPLANE=100.00
		FIELD_CROSSPLANE=100.00
		FIELD_TYPE=RECTANGULAR
		GANTRY=0.00
		GANTRY_UPRIGHT_POSITION=0
		GANTRY_ROTATION=CW
		COLL_ANGLE=90.00
		COLL_OFFSET_INPLANE=0.00
		COLL_OFFSET_CROSSPLANE=0.00
		SCAN_DEVICE=STARCHECK
		ELECTROMETER=2D_ARRAY_INTERFACE
		DETECTOR=STARCHECK
		SCAN_CURVETYPE=INPLANE_PROFILE
		SCAN_DEPTH=0.00
		SCAN_OFFAXIS_CROSSPLANE=0.00
		SCAN_ANGLE=0.00
		SCAN_DIAGONAL=SECOND_DIAGONAL
		MEAS_PRESET=TIME_PRESET
		MEAS_TIME=10.000
		MEAS_UNIT=GY
		PRESSURE=1013.25
		TEMPERATURE=20.00
		NORM_TEMPERATURE=20.00
		CORRECTION_FACTOR=1.0000
		CORRECTIONS=AIR_DENSITY_CORR;
		BEGIN_DATA
			-172.40		2.7551E-03
			-169.40		3.1736E-03
			-166.40		3.0425E-03
			-163.40		3.3164E-03
			-160.40		3.5019E-03
			-157.40		3.7459E-03
			-154.40		4.5104E-03
			-151.40		4.3405E-03
			-148.40		4.6690E-03
			-145.40		5.8572E-03
			-142.40		5.4971E-03
			-139.40		5.8258E-03
			-136.40		6.0875E-03
			-133.40		6.9398E-03
			-130.40		7.5491E-03
			-127.40		8.1494E-03
			-124.40		9.1123E-03
			-121.40		9.4165E-03
			-118.40		10.182E-03
			-115.40		10.828E-03
			-112.40		11.543E-03
			-109.40		13.264E-03
			-106.40		14.784E-03
			-103.40		15.709E-03
			-100.40		17.726E-03
			-97.40		19.117E-03
			-94.40		20.646E-03
			-91.40		23.700E-03
			-88.40		26.021E-03
			-85.40		30.107E-03
			-82.40		35.717E-03
			-79.40		45.581E-03
			-76.40		68.227E-03
			-73.40		148.50E-03
			-70.40		311.01E-03
			-67.40		473.17E-03
			-64.40		579.16E-03
			-61.40		619.97E-03
			-58.40		638.85E-03
			-55.40		646.53E-03
			-52.40		655.48E-03
			-49.40		659.15E-03
			-46.40		661.48E-03
			-43.40		663.59E-03
			-40.40		665.53E-03
			-37.40		668.01E-03
			-34.40		666.74E-03
			-31.40		667.82E-03
			-28.40		669.26E-03
			-25.40		667.55E-03
			-22.40		666.91E-03
			-19.40		670.41E-03
			-16.40		671.45E-03
			-13.40		673.43E-03
			0.00		670.17E-03
			13.40		669.14E-03
			16.40		666.82E-03
			19.40		664.38E-03
			22.40		661.83E-03
			25.40		661.25E-03
			28.40		659.74E-03
			31.40		657.69E-03
			34.40		654.10E-03
			37.40		652.50E-03
			40.40		650.43E-03
			43.40		648.19E-03
			46.40		643.40E-03
			49.40		635.56E-03
			52.40		620.02E-03
			55.40		591.23E-03
			58.40		521.69E-03
			61.40		390.59E-03
			64.40		231.27E-03
			67.40		110.37E-03
			70.40		60.525E-03
			73.40		42.732E-03
			76.40		34.718E-03
			79.40		29.920E-03
			82.40		26.911E-03
			85.40		24.731E-03
			88.40		21.735E-03
			91.40		19.578E-03
			94.40		17.731E-03
			97.40		16.395E-03
			100.40		13.825E-03
			103.40		12.809E-03
			106.40		12.409E-03
			109.40		11.056E-03
			112.40		10.340E-03
			115.40		9.3881E-03
			118.40		8.5348E-03
			121.40		8.0046E-03
			124.40		7.2210E-03
			127.40		7.3281E-03
			130.40		6.8799E-03
			133.40		6.0760E-03
			136.40		5.5242E-03
			139.40		5.6963E-03
			142.40		5.2889E-03
			145.40		5.0847E-03
			148.40		4.4457E-03
			151.40		4.0970E-03
			154.40		4.0364E-03
			157.40		3.6730E-03
			160.40		3.6069E-03
			163.40		3.6466E-03
			166.40		3.2570E-03
			169.40		3.2802E-03
			172.40		2.4113E-03
		END_DATA
	END_SCAN  16
END_SCAN_DATA
