BEGIN_SCAN_DATA
	FORMAT=CC-Export V1.9                  
	FILE_CREATION_DATE=07-Oct-2010 14:10:22
	LAST_MODIFIED=07-Oct-2010 14:10:22
	BEGIN_SCAN  1
		TASK_NAME=MODE_INTERVAL
		PROGRAM=BeamAdjust 1.2
		MEAS_DATE=07-Oct-2010 14:10:21
		LINAC=A4
		MODALITY=X
		INPLANE_AXIS_DIR=TARGET_GUN
		CROSSPLANE_AXIS_DIR=LEFT_RIGHT
		DEPTH_AXIS_DIR=UP_DOWN
		ENERGY=6.00
		SSD=950.00
		WEDGE=None
		FIELD_INPLANE=100.00
		FIELD_CROSSPLANE=100.00
		FIELD_TYPE=RECTANGULAR
		GANTRY=0.00
		GANTRY_UPRIGHT_POSITION=0
		GANTRY_ROTATION=CW
		COLL_ANGLE=90.00
		COLL_OFFSET_INPLANE=0.00
		COLL_OFFSET_CROSSPLANE=0.00
		SCAN_DEVICE=STARCHECK
		ELECTROMETER=2D_ARRAY_INTERFACE
		DETECTOR=STARCHECK
		SCAN_CURVETYPE=CROSSPLANE_PROFILE
		SCAN_DEPTH=0.00
		SCAN_OFFAXIS_INPLANE=-130.00
		SCAN_ANGLE=0.00
		SCAN_DIAGONAL=NOT_DIAGONAL
		MEAS_PRESET=TIME_PRESET
		MEAS_TIME=10.000
		MEAS_UNIT=GY
		PRESSURE=1013.25
		TEMPERATURE=20.00
		NORM_TEMPERATURE=20.00
		CORRECTION_FACTOR=1.0000
		CORRECTIONS=AIR_DENSITY_CORR;
		BEGIN_DATA
			-130.00		2.5252E-03
			-80.00		4.6498E-03
			-40.00		7.9608E-03
			40.00		7.3813E-03
			80.00		4.6003E-03
			130.00		1.9688E-03
		END_DATA
	END_SCAN  1
	BEGIN_SCAN  2
		TASK_NAME=MODE_INTERVAL
		PROGRAM=BeamAdjust 1.2
		MEAS_DATE=07-Oct-2010 14:10:21
		LINAC=A4
		MODALITY=X
		INPLANE_AXIS_DIR=TARGET_GUN
		CROSSPLANE_AXIS_DIR=LEFT_RIGHT
		DEPTH_AXIS_DIR=UP_DOWN
		ENERGY=6.00
		SSD=950.00
		WEDGE=None
		FIELD_INPLANE=100.00
		FIELD_CROSSPLANE=100.00
		FIELD_TYPE=RECTANGULAR
		GANTRY=0.00
		GANTRY_UPRIGHT_POSITION=0
		GANTRY_ROTATION=CW
		COLL_ANGLE=90.00
		COLL_OFFSET_INPLANE=0.00
		COLL_OFFSET_CROSSPLANE=0.00
		SCAN_DEVICE=STARCHECK
		ELECTROMETER=2D_ARRAY_INTERFACE
		DETECTOR=STARCHECK
		SCAN_CURVETYPE=CROSSPLANE_PROFILE
		SCAN_DEPTH=0.00
		SCAN_OFFAXIS_INPLANE=-100.00
		SCAN_ANGLE=0.00
		SCAN_DIAGONAL=NOT_DIAGONAL
		MEAS_PRESET=TIME_PRESET
		MEAS_TIME=10.000
		MEAS_UNIT=GY
		PRESSURE=1013.25
		TEMPERATURE=20.00
		NORM_TEMPERATURE=20.00
		CORRECTION_FACTOR=1.0000
		CORRECTIONS=AIR_DENSITY_CORR;
		BEGIN_DATA
			-60.00		11.646E-03
			-30.00		16.076E-03
			30.00		16.894E-03
			60.00		11.074E-03
		END_DATA
	END_SCAN  2
	BEGIN_SCAN  3
		TASK_NAME=MODE_INTERVAL
		PROGRAM=BeamAdjust 1.2
		MEAS_DATE=07-Oct-2010 14:10:21
		LINAC=A4
		MODALITY=X
		INPLANE_AXIS_DIR=TARGET_GUN
		CROSSPLANE_AXIS_DIR=LEFT_RIGHT
		DEPTH_AXIS_DIR=UP_DOWN
		ENERGY=6.00
		SSD=950.00
		WEDGE=None
		FIELD_INPLANE=100.00
		FIELD_CROSSPLANE=100.00
		FIELD_TYPE=RECTANGULAR
		GANTRY=0.00
		GANTRY_UPRIGHT_POSITION=0
		GANTRY_ROTATION=CW
		COLL_ANGLE=90.00
		COLL_OFFSET_INPLANE=0.00
		COLL_OFFSET_CROSSPLANE=0.00
		SCAN_DEVICE=STARCHECK
		ELECTROMETER=2D_ARRAY_INTERFACE
		DETECTOR=STARCHECK
		SCAN_CURVETYPE=CROSSPLANE_PROFILE
		SCAN_DEPTH=0.00
		SCAN_OFFAXIS_INPLANE=-50.00
		SCAN_ANGLE=0.00
		SCAN_DIAGONAL=NOT_DIAGONAL
		MEAS_PRESET=TIME_PRESET
		MEAS_TIME=10.000
		MEAS_UNIT=GY
		PRESSURE=1013.25
		TEMPERATURE=20.00
		NORM_TEMPERATURE=20.00
		CORRECTION_FACTOR=1.0000
		CORRECTIONS=AIR_DENSITY_CORR;
		BEGIN_DATA
			-30.00		633.81E-03
			-15.00		632.41E-03
			15.00		639.85E-03
			30.00		636.40E-03
		END_DATA
	END_SCAN  3
	BEGIN_SCAN  4
		TASK_NAME=MODE_INTERVAL
		PROGRAM=BeamAdjust 1.2
		MEAS_DATE=07-Oct-2010 14:10:21
		LINAC=A4
		MODALITY=X
		INPLANE_AXIS_DIR=TARGET_GUN
		CROSSPLANE_AXIS_DIR=LEFT_RIGHT
		DEPTH_AXIS_DIR=UP_DOWN
		ENERGY=6.00
		SSD=950.00
		WEDGE=None
		FIELD_INPLANE=100.00
		FIELD_CROSSPLANE=100.00
		FIELD_TYPE=RECTANGULAR
		GANTRY=0.00
		GANTRY_UPRIGHT_POSITION=0
		GANTRY_ROTATION=CW
		COLL_ANGLE=90.00
		COLL_OFFSET_INPLANE=0.00
		COLL_OFFSET_CROSSPLANE=0.00
		SCAN_DEVICE=STARCHECK
		ELECTROMETER=2D_ARRAY_INTERFACE
		DETECTOR=STARCHECK
		SCAN_CURVETYPE=CROSSPLANE_PROFILE
		SCAN_DEPTH=0.00
		SCAN_OFFAXIS_INPLANE=0.00
		SCAN_ANGLE=0.00
		SCAN_DIAGONAL=NOT_DIAGONAL
		MEAS_PRESET=TIME_PRESET
		MEAS_TIME=10.000
		MEAS_UNIT=GY
		PRESSURE=1013.25
		TEMPERATURE=20.00
		NORM_TEMPERATURE=20.00
		CORRECTION_FACTOR=1.0000
		CORRECTIONS=AIR_DENSITY_CORR;
		BEGIN_DATA
			-126.00		6.3917E-03
			-123.00		7.4219E-03
			-120.00		8.4441E-03
			-117.00		8.3258E-03
			-114.00		8.6887E-03
			-111.00		9.6574E-03
			-108.00		10.088E-03
			-105.00		10.804E-03
			-102.00		11.983E-03
			-99.00		12.573E-03
			-96.00		14.031E-03
			-93.00		15.171E-03
			-90.00		16.482E-03
			-87.00		17.980E-03
			-84.00		20.054E-03
			-81.00		21.990E-03
			-78.00		24.771E-03
			-75.00		26.688E-03
			-72.00		30.160E-03
			-69.00		34.140E-03
			-66.00		39.179E-03
			-63.00		45.312E-03
			-60.00		54.837E-03
			-57.00		72.868E-03
			-54.00		114.78E-03
			-51.00		293.78E-03
			-48.00		555.88E-03
			-45.00		616.94E-03
			-42.00		636.21E-03
			-39.00		648.40E-03
			-36.00		654.97E-03
			-33.00		654.99E-03
			-30.00		656.26E-03
			-27.00		659.25E-03
			-24.00		661.85E-03
			-21.00		660.89E-03
			-18.00		666.93E-03
			-15.00		666.39E-03
			-12.00		666.79E-03
			-9.00		669.77E-03
			-6.00		669.61E-03
			0.00		669.36E-03
			6.00		671.88E-03
			9.00		670.28E-03
			12.00		667.47E-03
			15.00		666.33E-03
			18.00		665.78E-03
			21.00		664.17E-03
			24.00		660.50E-03
			27.00		664.67E-03
			30.00		662.75E-03
			33.00		660.54E-03
			36.00		656.91E-03
			39.00		650.80E-03
			42.00		639.68E-03
			45.00		614.18E-03
			48.00		523.82E-03
			51.00		230.01E-03
			54.00		101.32E-03
			57.00		67.753E-03
			60.00		52.711E-03
			63.00		43.527E-03
			66.00		37.877E-03
			69.00		32.791E-03
			72.00		29.175E-03
			75.00		26.326E-03
			78.00		23.393E-03
			81.00		21.135E-03
			84.00		19.392E-03
			87.00		17.465E-03
			90.00		16.427E-03
			93.00		14.859E-03
			96.00		13.896E-03
			99.00		12.196E-03
			102.00		11.701E-03
			105.00		10.660E-03
			108.00		10.366E-03
			111.00		8.8983E-03
			114.00		8.3219E-03
			117.00		8.2830E-03
			120.00		6.9340E-03
			123.00		6.8270E-03
			126.00		7.3624E-03
		END_DATA
	END_SCAN  4
	BEGIN_SCAN  5
		TASK_NAME=MODE_INTERVAL
		PROGRAM=BeamAdjust 1.2
		MEAS_DATE=07-Oct-2010 14:10:21
		LINAC=A4
		MODALITY=X
		INPLANE_AXIS_DIR=TARGET_GUN
		CROSSPLANE_AXIS_DIR=LEFT_RIGHT
		DEPTH_AXIS_DIR=UP_DOWN
		ENERGY=6.00
		SSD=950.00
		WEDGE=None
		FIELD_INPLANE=100.00
		FIELD_CROSSPLANE=100.00
		FIELD_TYPE=RECTANGULAR
		GANTRY=0.00
		GANTRY_UPRIGHT_POSITION=0
		GANTRY_ROTATION=CW
		COLL_ANGLE=90.00
		COLL_OFFSET_INPLANE=0.00
		COLL_OFFSET_CROSSPLANE=0.00
		SCAN_DEVICE=STARCHECK
		ELECTROMETER=2D_ARRAY_INTERFACE
		DETECTOR=STARCHECK
		SCAN_CURVETYPE=CROSSPLANE_PROFILE
		SCAN_DEPTH=0.00
		SCAN_OFFAXIS_INPLANE=50.00
		SCAN_ANGLE=0.00
		SCAN_DIAGONAL=NOT_DIAGONAL
		MEAS_PRESET=TIME_PRESET
		MEAS_TIME=10.000
		MEAS_UNIT=GY
		PRESSURE=1013.25
		TEMPERATURE=20.00
		NORM_TEMPERATURE=20.00
		CORRECTION_FACTOR=1.0000
		CORRECTIONS=AIR_DENSITY_CORR;
		BEGIN_DATA
			-30.00		75.181E-03
			-15.00		77.842E-03
			15.00		74.426E-03
			30.00		73.758E-03
		END_DATA
	END_SCAN  5
	BEGIN_SCAN  6
		TASK_NAME=MODE_INTERVAL
		PROGRAM=BeamAdjust 1.2
		MEAS_DATE=07-Oct-2010 14:10:22
		LINAC=A4
		MODALITY=X
		INPLANE_AXIS_DIR=TARGET_GUN
		CROSSPLANE_AXIS_DIR=LEFT_RIGHT
		DEPTH_AXIS_DIR=UP_DOWN
		ENERGY=6.00
		SSD=950.00
		WEDGE=None
		FIELD_INPLANE=100.00
		FIELD_CROSSPLANE=100.00
		FIELD_TYPE=RECTANGULAR
		GANTRY=0.00
		GANTRY_UPRIGHT_POSITION=0
		GANTRY_ROTATION=CW
		COLL_ANGLE=90.00
		COLL_OFFSET_INPLANE=0.00
		COLL_OFFSET_CROSSPLANE=0.00
		SCAN_DEVICE=STARCHECK
		ELECTROMETER=2D_ARRAY_INTERFACE
		DETECTOR=STARCHECK
		SCAN_CURVETYPE=CROSSPLANE_PROFILE
		SCAN_DEPTH=0.00
		SCAN_OFFAXIS_INPLANE=100.00
		SCAN_ANGLE=0.00
		SCAN_DIAGONAL=NOT_DIAGONAL
		MEAS_PRESET=TIME_PRESET
		MEAS_TIME=10.000
		MEAS_UNIT=GY
		PRESSURE=1013.25
		TEMPERATURE=20.00
		NORM_TEMPERATURE=20.00
		CORRECTION_FACTOR=1.0000
		CORRECTIONS=AIR_DENSITY_CORR;
		BEGIN_DATA
			-60.00		8.9993E-03
			-30.00		13.138E-03
			30.00		13.353E-03
			60.00		8.3341E-03
		END_DATA
	END_SCAN  6
	BEGIN_SCAN  7
		TASK_NAME=MODE_INTERVAL
		PROGRAM=BeamAdjust 1.2
		MEAS_DATE=07-Oct-2010 14:10:22
		LINAC=A4
		MODALITY=X
		INPLANE_AXIS_DIR=TARGET_GUN
		CROSSPLANE_AXIS_DIR=LEFT_RIGHT
		DEPTH_AXIS_DIR=UP_DOWN
		ENERGY=6.00
		SSD=950.00
		WEDGE=None
		FIELD_INPLANE=100.00
		FIELD_CROSSPLANE=100.00
		FIELD_TYPE=RECTANGULAR
		GANTRY=0.00
		GANTRY_UPRIGHT_POSITION=0
		GANTRY_ROTATION=CW
		COLL_ANGLE=90.00
		COLL_OFFSET_INPLANE=0.00
		COLL_OFFSET_CROSSPLANE=0.00
		SCAN_DEVICE=STARCHECK
		ELECTROMETER=2D_ARRAY_INTERFACE
		DETECTOR=STARCHECK
		SCAN_CURVETYPE=CROSSPLANE_PROFILE
		SCAN_DEPTH=0.00
		SCAN_OFFAXIS_INPLANE=130.00
		SCAN_ANGLE=0.00
		SCAN_DIAGONAL=NOT_DIAGONAL
		MEAS_PRESET=TIME_PRESET
		MEAS_TIME=10.000
		MEAS_UNIT=GY
		PRESSURE=1013.25
		TEMPERATURE=20.00
		NORM_TEMPERATURE=20.00
		CORRECTION_FACTOR=1.0000
		CORRECTIONS=AIR_DENSITY_CORR;
		BEGIN_DATA
			-130.00		1.8284E-03
			-80.00		4.0333E-03
			-40.00		7.2807E-03
			40.00		6.6364E-03
			80.00		3.6118E-03
			130.00		2.4068E-03
		END_DATA
	END_SCAN  7
	BEGIN_SCAN  8
		TASK_NAME=MODE_INTERVAL
		PROGRAM=BeamAdjust 1.2
		MEAS_DATE=07-Oct-2010 14:10:22
		LINAC=A4
		MODALITY=X
		INPLANE_AXIS_DIR=TARGET_GUN
		CROSSPLANE_AXIS_DIR=LEFT_RIGHT
		DEPTH_AXIS_DIR=UP_DOWN
		ENERGY=6.00
		SSD=950.00
		WEDGE=None
		FIELD_INPLANE=100.00
		FIELD_CROSSPLANE=100.00
		FIELD_TYPE=RECTANGULAR
		GANTRY=0.00
		GANTRY_UPRIGHT_POSITION=0
		GANTRY_ROTATION=CW
		COLL_ANGLE=90.00
		COLL_OFFSET_INPLANE=0.00
		COLL_OFFSET_CROSSPLANE=0.00
		SCAN_DEVICE=STARCHECK
		ELECTROMETER=2D_ARRAY_INTERFACE
		DETECTOR=STARCHECK
		SCAN_CURVETYPE=INPLANE_PROFILE
		SCAN_DEPTH=0.00
		SCAN_OFFAXIS_CROSSPLANE=-130.00
		SCAN_ANGLE=0.00
		SCAN_DIAGONAL=NOT_DIAGONAL
		MEAS_PRESET=TIME_PRESET
		MEAS_TIME=10.000
		MEAS_UNIT=GY
		PRESSURE=1013.25
		TEMPERATURE=20.00
		NORM_TEMPERATURE=20.00
		CORRECTION_FACTOR=1.0000
		CORRECTIONS=AIR_DENSITY_CORR;
		BEGIN_DATA
			-130.00		2.5252E-03
			-125.00		2.8691E-03
			-120.00		3.1556E-03
			-115.00		3.1912E-03
			-110.00		3.6749E-03
			-105.00		3.8197E-03
			-100.00		4.0153E-03
			-95.00		4.8834E-03
			-90.00		4.7576E-03
			-85.00		4.8214E-03
			-80.00		4.3513E-03
			-75.00		5.6305E-03
			-70.00		5.2099E-03
			-65.00		5.1263E-03
			-60.00		5.5430E-03
			-55.00		5.9481E-03
			-50.00		4.7280E-03
			-45.00		4.5943E-03
			-40.00		5.0260E-03
			-35.00		5.8818E-03
			-30.00		5.3519E-03
			-25.00		5.3596E-03
			-20.00		5.2721E-03
			-15.00		5.0457E-03
			-10.00		5.7671E-03
			-5.00		6.8721E-03
			0.00		5.8583E-03
			5.00		6.3554E-03
			10.00		5.7870E-03
			15.00		5.3549E-03
			20.00		5.9592E-03
			25.00		5.2488E-03
			30.00		5.5468E-03
			35.00		5.3973E-03
			40.00		5.0626E-03
			45.00		4.5256E-03
			50.00		4.8971E-03
			55.00		3.9964E-03
			60.00		4.7646E-03
			65.00		4.0282E-03
			70.00		3.5674E-03
			75.00		4.0283E-03
			80.00		3.4274E-03
			85.00		3.4851E-03
			90.00		3.0628E-03
			95.00		3.3371E-03
			100.00		2.9802E-03
			105.00		2.3246E-03
			110.00		2.6976E-03
			115.00		2.1138E-03
			120.00		2.5126E-03
			125.00		2.3568E-03
			130.00		1.8284E-03
		END_DATA
	END_SCAN  8
	BEGIN_SCAN  9
		TASK_NAME=MODE_INTERVAL
		PROGRAM=BeamAdjust 1.2
		MEAS_DATE=07-Oct-2010 14:10:22
		LINAC=A4
		MODALITY=X
		INPLANE_AXIS_DIR=TARGET_GUN
		CROSSPLANE_AXIS_DIR=LEFT_RIGHT
		DEPTH_AXIS_DIR=UP_DOWN
		ENERGY=6.00
		SSD=950.00
		WEDGE=None
		FIELD_INPLANE=100.00
		FIELD_CROSSPLANE=100.00
		FIELD_TYPE=RECTANGULAR
		GANTRY=0.00
		GANTRY_UPRIGHT_POSITION=0
		GANTRY_ROTATION=CW
		COLL_ANGLE=90.00
		COLL_OFFSET_INPLANE=0.00
		COLL_OFFSET_CROSSPLANE=0.00
		SCAN_DEVICE=STARCHECK
		ELECTROMETER=2D_ARRAY_INTERFACE
		DETECTOR=STARCHECK
		SCAN_CURVETYPE=INPLANE_PROFILE
		SCAN_DEPTH=0.00
		SCAN_OFFAXIS_CROSSPLANE=-100.00
		SCAN_ANGLE=0.00
		SCAN_DIAGONAL=NOT_DIAGONAL
		MEAS_PRESET=TIME_PRESET
		MEAS_TIME=10.000
		MEAS_UNIT=GY
		PRESSURE=1013.25
		TEMPERATURE=20.00
		NORM_TEMPERATURE=20.00
		CORRECTION_FACTOR=1.0000
		CORRECTIONS=AIR_DENSITY_CORR;
		BEGIN_DATA
			-60.00		9.4507E-03
			-30.00		10.302E-03
			30.00		9.9683E-03
			60.00		7.8441E-03
		END_DATA
	END_SCAN  9
	BEGIN_SCAN  10
		TASK_NAME=MODE_INTERVAL
		PROGRAM=BeamAdjust 1.2
		MEAS_DATE=07-Oct-2010 14:10:22
		LINAC=A4
		MODALITY=X
		INPLANE_AXIS_DIR=TARGET_GUN
		CROSSPLANE_AXIS_DIR=LEFT_RIGHT
		DEPTH_AXIS_DIR=UP_DOWN
		ENERGY=6.00
		SSD=950.00
		WEDGE=None
		FIELD_INPLANE=100.00
		FIELD_CROSSPLANE=100.00
		FIELD_TYPE=RECTANGULAR
		GANTRY=0.00
		GANTRY_UPRIGHT_POSITION=0
		GANTRY_ROTATION=CW
		COLL_ANGLE=90.00
		COLL_OFFSET_INPLANE=0.00
		COLL_OFFSET_CROSSPLANE=0.00
		SCAN_DEVICE=STARCHECK
		ELECTROMETER=2D_ARRAY_INTERFACE
		DETECTOR=STARCHECK
		SCAN_CURVETYPE=INPLANE_PROFILE
		SCAN_DEPTH=0.00
		SCAN_OFFAXIS_CROSSPLANE=-50.00
		SCAN_ANGLE=0.00
		SCAN_DIAGONAL=NOT_DIAGONAL
		MEAS_PRESET=TIME_PRESET
		MEAS_TIME=10.000
		MEAS_UNIT=GY
		PRESSURE=1013.25
		TEMPERATURE=20.00
		NORM_TEMPERATURE=20.00
		CORRECTION_FACTOR=1.0000
		CORRECTIONS=AIR_DENSITY_CORR;
		BEGIN_DATA
			-30.00		401.04E-03
			-15.00		396.30E-03
			15.00		384.68E-03
			30.00		371.57E-03
		END_DATA
	END_SCAN  10
	BEGIN_SCAN  11
		TASK_NAME=MODE_INTERVAL
		PROGRAM=BeamAdjust 1.2
		MEAS_DATE=07-Oct-2010 14:10:22
		LINAC=A4
		MODALITY=X
		INPLANE_AXIS_DIR=TARGET_GUN
		CROSSPLANE_AXIS_DIR=LEFT_RIGHT
		DEPTH_AXIS_DIR=UP_DOWN
		ENERGY=6.00
		SSD=950.00
		WEDGE=None
		FIELD_INPLANE=100.00
		FIELD_CROSSPLANE=100.00
		FIELD_TYPE=RECTANGULAR
		GANTRY=0.00
		GANTRY_UPRIGHT_POSITION=0
		GANTRY_ROTATION=CW
		COLL_ANGLE=90.00
		COLL_OFFSET_INPLANE=0.00
		COLL_OFFSET_CROSSPLANE=0.00
		SCAN_DEVICE=STARCHECK
		ELECTROMETER=2D_ARRAY_INTERFACE
		DETECTOR=STARCHECK
		SCAN_CURVETYPE=INPLANE_PROFILE
		SCAN_DEPTH=0.00
		SCAN_OFFAXIS_CROSSPLANE=0.00
		SCAN_ANGLE=0.00
		SCAN_DIAGONAL=NOT_DIAGONAL
		MEAS_PRESET=TIME_PRESET
		MEAS_TIME=10.000
		MEAS_UNIT=GY
		PRESSURE=1013.25
		TEMPERATURE=20.00
		NORM_TEMPERATURE=20.00
		CORRECTION_FACTOR=1.0000
		CORRECTIONS=AIR_DENSITY_CORR;
		BEGIN_DATA
			-126.00		10.080E-03
			-123.00		9.8539E-03
			-120.00		12.198E-03
			-117.00		12.264E-03
			-114.00		13.335E-03
			-111.00		14.341E-03
			-108.00		15.192E-03
			-105.00		16.500E-03
			-102.00		18.287E-03
			-99.00		18.998E-03
			-96.00		20.623E-03
			-93.00		23.098E-03
			-90.00		24.860E-03
			-87.00		26.764E-03
			-84.00		29.837E-03
			-81.00		32.206E-03
			-78.00		36.749E-03
			-75.00		39.214E-03
			-72.00		44.202E-03
			-69.00		50.048E-03
			-66.00		58.745E-03
			-63.00		74.616E-03
			-60.00		110.32E-03
			-57.00		229.94E-03
			-54.00		498.17E-03
			-51.00		610.80E-03
			-48.00		640.83E-03
			-45.00		651.67E-03
			-42.00		657.17E-03
			-39.00		660.84E-03
			-36.00		663.75E-03
			-33.00		664.76E-03
			-30.00		667.04E-03
			-27.00		667.60E-03
			-24.00		667.59E-03
			-21.00		667.71E-03
			-18.00		674.02E-03
			-15.00		669.19E-03
			-12.00		669.06E-03
			-9.00		668.51E-03
			-6.00		666.94E-03
			0.00		669.36E-03
			6.00		672.96E-03
			9.00		668.51E-03
			12.00		667.15E-03
			15.00		666.65E-03
			18.00		662.57E-03
			21.00		662.01E-03
			24.00		657.43E-03
			27.00		657.76E-03
			30.00		651.38E-03
			33.00		645.68E-03
			36.00		637.18E-03
			39.00		607.71E-03
			42.00		509.01E-03
			45.00		245.15E-03
			48.00		116.20E-03
			51.00		76.260E-03
			54.00		58.828E-03
			57.00		51.355E-03
			60.00		44.467E-03
			63.00		39.556E-03
			66.00		35.857E-03
			69.00		32.382E-03
			72.00		29.881E-03
			75.00		26.855E-03
			78.00		24.062E-03
			81.00		22.367E-03
			84.00		21.047E-03
			87.00		19.296E-03
			90.00		18.380E-03
			93.00		16.551E-03
			96.00		15.767E-03
			99.00		14.879E-03
			102.00		12.609E-03
			105.00		12.214E-03
			108.00		11.798E-03
			111.00		10.601E-03
			114.00		10.433E-03
			117.00		9.4516E-03
			120.00		8.6480E-03
			123.00		8.6252E-03
			126.00		7.2611E-03
		END_DATA
	END_SCAN  11
	BEGIN_SCAN  12
		TASK_NAME=MODE_INTERVAL
		PROGRAM=BeamAdjust 1.2
		MEAS_DATE=07-Oct-2010 14:10:22
		LINAC=A4
		MODALITY=X
		INPLANE_AXIS_DIR=TARGET_GUN
		CROSSPLANE_AXIS_DIR=LEFT_RIGHT
		DEPTH_AXIS_DIR=UP_DOWN
		ENERGY=6.00
		SSD=950.00
		WEDGE=None
		FIELD_INPLANE=100.00
		FIELD_CROSSPLANE=100.00
		FIELD_TYPE=RECTANGULAR
		GANTRY=0.00
		GANTRY_UPRIGHT_POSITION=0
		GANTRY_ROTATION=CW
		COLL_ANGLE=90.00
		COLL_OFFSET_INPLANE=0.00
		COLL_OFFSET_CROSSPLANE=0.00
		SCAN_DEVICE=STARCHECK
		ELECTROMETER=2D_ARRAY_INTERFACE
		DETECTOR=STARCHECK
		SCAN_CURVETYPE=INPLANE_PROFILE
		SCAN_DEPTH=0.00
		SCAN_OFFAXIS_CROSSPLANE=50.00
		SCAN_ANGLE=0.00
		SCAN_DIAGONAL=NOT_DIAGONAL
		MEAS_PRESET=TIME_PRESET
		MEAS_TIME=10.000
		MEAS_UNIT=GY
		PRESSURE=1013.25
		TEMPERATURE=20.00
		NORM_TEMPERATURE=20.00
		CORRECTION_FACTOR=1.0000
		CORRECTIONS=AIR_DENSITY_CORR;
		BEGIN_DATA
			-30.00		326.06E-03
			-15.00		333.70E-03
			15.00		340.11E-03
			30.00		338.28E-03
		END_DATA
	END_SCAN  12
	BEGIN_SCAN  13
		TASK_NAME=MODE_INTERVAL
		PROGRAM=BeamAdjust 1.2
		MEAS_DATE=07-Oct-2010 14:10:22
		LINAC=A4
		MODALITY=X
		INPLANE_AXIS_DIR=TARGET_GUN
		CROSSPLANE_AXIS_DIR=LEFT_RIGHT
		DEPTH_AXIS_DIR=UP_DOWN
		ENERGY=6.00
		SSD=950.00
		WEDGE=None
		FIELD_INPLANE=100.00
		FIELD_CROSSPLANE=100.00
		FIELD_TYPE=RECTANGULAR
		GANTRY=0.00
		GANTRY_UPRIGHT_POSITION=0
		GANTRY_ROTATION=CW
		COLL_ANGLE=90.00
		COLL_OFFSET_INPLANE=0.00
		COLL_OFFSET_CROSSPLANE=0.00
		SCAN_DEVICE=STARCHECK
		ELECTROMETER=2D_ARRAY_INTERFACE
		DETECTOR=STARCHECK
		SCAN_CURVETYPE=INPLANE_PROFILE
		SCAN_DEPTH=0.00
		SCAN_OFFAXIS_CROSSPLANE=100.00
		SCAN_ANGLE=0.00
		SCAN_DIAGONAL=NOT_DIAGONAL
		MEAS_PRESET=TIME_PRESET
		MEAS_TIME=10.000
		MEAS_UNIT=GY
		PRESSURE=1013.25
		TEMPERATURE=20.00
		NORM_TEMPERATURE=20.00
		CORRECTION_FACTOR=1.0000
		CORRECTIONS=AIR_DENSITY_CORR;
		BEGIN_DATA
			-60.00		8.6699E-03
			-30.00		10.413E-03
			30.00		10.152E-03
			60.00		7.1361E-03
		END_DATA
	END_SCAN  13
	BEGIN_SCAN  14
		TASK_NAME=MODE_INTERVAL
		PROGRAM=BeamAdjust 1.2
		MEAS_DATE=07-Oct-2010 14:10:22
		LINAC=A4
		MODALITY=X
		INPLANE_AXIS_DIR=TARGET_GUN
		CROSSPLANE_AXIS_DIR=LEFT_RIGHT
		DEPTH_AXIS_DIR=UP_DOWN
		ENERGY=6.00
		SSD=950.00
		WEDGE=None
		FIELD_INPLANE=100.00
		FIELD_CROSSPLANE=100.00
		FIELD_TYPE=RECTANGULAR
		GANTRY=0.00
		GANTRY_UPRIGHT_POSITION=0
		GANTRY_ROTATION=CW
		COLL_ANGLE=90.00
		COLL_OFFSET_INPLANE=0.00
		COLL_OFFSET_CROSSPLANE=0.00
		SCAN_DEVICE=STARCHECK
		ELECTROMETER=2D_ARRAY_INTERFACE
		DETECTOR=STARCHECK
		SCAN_CURVETYPE=INPLANE_PROFILE
		SCAN_DEPTH=0.00
		SCAN_OFFAXIS_CROSSPLANE=130.00
		SCAN_ANGLE=0.00
		SCAN_DIAGONAL=NOT_DIAGONAL
		MEAS_PRESET=TIME_PRESET
		MEAS_TIME=10.000
		MEAS_UNIT=GY
		PRESSURE=1013.25
		TEMPERATURE=20.00
		NORM_TEMPERATURE=20.00
		CORRECTION_FACTOR=1.0000
		CORRECTIONS=AIR_DENSITY_CORR;
		BEGIN_DATA
			-130.00		1.9688E-03
			-125.00		2.8179E-03
			-120.00		2.4993E-03
			-115.00		2.8738E-03
			-110.00		2.5331E-03
			-105.00		3.0439E-03
			-100.00		3.3552E-03
			-95.00		2.7760E-03
			-90.00		3.1841E-03
			-85.00		3.6662E-03
			-80.00		3.8303E-03
			-75.00		3.7578E-03
			-70.00		4.2329E-03
			-65.00		4.4808E-03
			-60.00		4.9524E-03
			-55.00		4.4624E-03
			-50.00		4.4333E-03
			-45.00		5.0765E-03
			-40.00		5.1979E-03
			-35.00		5.1752E-03
			-30.00		5.3543E-03
			-25.00		5.3098E-03
			-20.00		5.2556E-03
			-15.00		5.1878E-03
			-10.00		5.1018E-03
			-5.00		5.8760E-03
			0.00		5.7613E-03
			5.00		6.1390E-03
			10.00		5.9346E-03
			15.00		5.1631E-03
			20.00		5.6827E-03
			25.00		5.3130E-03
			30.00		4.9880E-03
			35.00		5.2272E-03
			40.00		5.3621E-03
			45.00		4.9191E-03
			50.00		4.5552E-03
			55.00		5.0849E-03
			60.00		4.4158E-03
			65.00		3.9007E-03
			70.00		4.0921E-03
			75.00		4.8207E-03
			80.00		3.6786E-03
			85.00		3.7552E-03
			90.00		3.2220E-03
			95.00		3.0431E-03
			100.00		3.4591E-03
			105.00		2.4855E-03
			110.00		2.4004E-03
			115.00		2.7535E-03
			120.00		2.5516E-03
			125.00		2.1503E-03
			130.00		2.4068E-03
		END_DATA
	END_SCAN  14
	BEGIN_SCAN  15
		TASK_NAME=MODE_INTERVAL
		PROGRAM=BeamAdjust 1.2
		MEAS_DATE=07-Oct-2010 14:10:22
		LINAC=A4
		MODALITY=X
		INPLANE_AXIS_DIR=TARGET_GUN
		CROSSPLANE_AXIS_DIR=LEFT_RIGHT
		DEPTH_AXIS_DIR=UP_DOWN
		ENERGY=6.00
		SSD=950.00
		WEDGE=None
		FIELD_INPLANE=100.00
		FIELD_CROSSPLANE=100.00
		FIELD_TYPE=RECTANGULAR
		GANTRY=0.00
		GANTRY_UPRIGHT_POSITION=0
		GANTRY_ROTATION=CW
		COLL_ANGLE=90.00
		COLL_OFFSET_INPLANE=0.00
		COLL_OFFSET_CROSSPLANE=0.00
		SCAN_DEVICE=STARCHECK
		ELECTROMETER=2D_ARRAY_INTERFACE
		DETECTOR=STARCHECK
		SCAN_CURVETYPE=INPLANE_PROFILE
		SCAN_DEPTH=0.00
		SCAN_OFFAXIS_CROSSPLANE=0.00
		SCAN_ANGLE=0.00
		SCAN_DIAGONAL=FIRST_DIAGONAL
		MEAS_PRESET=TIME_PRESET
		MEAS_TIME=10.000
		MEAS_UNIT=GY
		PRESSURE=1013.25
		TEMPERATURE=20.00
		NORM_TEMPERATURE=20.00
		CORRECTION_FACTOR=1.0000
		CORRECTIONS=AIR_DENSITY_CORR;
		BEGIN_DATA
			-172.40		3.0440E-03
			-169.40		3.1599E-03
			-166.40		4.1764E-03
			-163.40		4.1093E-03
			-160.40		4.3354E-03
			-157.40		4.1824E-03
			-154.40		3.9062E-03
			-151.40		4.4829E-03
			-148.40		4.9407E-03
			-145.40		5.2463E-03
			-142.40		6.0722E-03
			-139.40		6.4669E-03
			-136.40		6.2969E-03
			-133.40		7.4500E-03
			-130.40		7.6285E-03
			-127.40		8.4015E-03
			-124.40		8.5585E-03
			-121.40		10.451E-03
			-118.40		10.630E-03
			-115.40		11.761E-03
			-112.40		12.226E-03
			-109.40		13.730E-03
			-106.40		15.082E-03
			-103.40		15.738E-03
			-100.40		17.492E-03
			-97.40		19.654E-03
			-94.40		22.014E-03
			-91.40		24.984E-03
			-88.40		28.043E-03
			-85.40		32.600E-03
			-82.40		39.538E-03
			-79.40		52.881E-03
			-76.40		89.209E-03
			-73.40		213.73E-03
			-70.40		384.40E-03
			-67.40		525.88E-03
			-64.40		596.96E-03
			-61.40		623.20E-03
			-58.40		635.50E-03
			-55.40		643.90E-03
			-52.40		649.08E-03
			-49.40		653.09E-03
			-46.40		654.36E-03
			-43.40		656.65E-03
			-40.40		659.03E-03
			-37.40		663.65E-03
			-34.40		662.41E-03
			-31.40		664.04E-03
			-28.40		662.17E-03
			-25.40		665.69E-03
			-22.40		666.69E-03
			-19.40		667.57E-03
			-16.40		669.38E-03
			-13.40		670.62E-03
			0.00		669.36E-03
			13.40		669.73E-03
			16.40		665.71E-03
			19.40		666.05E-03
			22.40		664.70E-03
			25.40		663.32E-03
			28.40		662.34E-03
			31.40		658.77E-03
			34.40		654.90E-03
			37.40		656.60E-03
			40.40		653.27E-03
			43.40		648.14E-03
			46.40		644.30E-03
			49.40		634.09E-03
			52.40		618.85E-03
			55.40		578.26E-03
			58.40		488.15E-03
			61.40		342.24E-03
			64.40		192.25E-03
			67.40		94.084E-03
			70.40		55.430E-03
			73.40		41.398E-03
			76.40		34.078E-03
			79.40		29.495E-03
			82.40		25.913E-03
			85.40		22.834E-03
			88.40		21.395E-03
			91.40		18.474E-03
			94.40		17.115E-03
			97.40		15.723E-03
			100.40		14.000E-03
			103.40		13.468E-03
			106.40		12.199E-03
			109.40		11.673E-03
			112.40		9.3831E-03
			115.40		9.1901E-03
			118.40		8.2262E-03
			121.40		7.5497E-03
			124.40		7.2962E-03
			127.40		6.9195E-03
			130.40		6.9016E-03
			133.40		5.9189E-03
			136.40		4.9663E-03
			139.40		4.5923E-03
			142.40		4.6055E-03
			145.40		4.1442E-03
			148.40		4.6311E-03
			151.40		4.0599E-03
			154.40		3.9957E-03
			157.40		3.1718E-03
			160.40		2.1997E-03
			163.40		2.7644E-03
			166.40		2.5122E-03
			169.40		2.5640E-03
			172.40		2.7877E-03
		END_DATA
	END_SCAN  15
	BEGIN_SCAN  16
		TASK_NAME=MODE_INTERVAL
		PROGRAM=BeamAdjust 1.2
		MEAS_DATE=07-Oct-2010 14:10:22
		LINAC=A4
		MODALITY=X
		INPLANE_AXIS_DIR=GUN_TARGET
		CROSSPLANE_AXIS_DIR=LEFT_RIGHT
		DEPTH_AXIS_DIR=UP_DOWN
		ENERGY=6.00
		SSD=950.00
		WEDGE=None
		FIELD_INPLANE=100.00
		FIELD_CROSSPLANE=100.00
		FIELD_TYPE=RECTANGULAR
		GANTRY=0.00
		GANTRY_UPRIGHT_POSITION=0
		GANTRY_ROTATION=CW
		COLL_ANGLE=90.00
		COLL_OFFSET_INPLANE=0.00
		COLL_OFFSET_CROSSPLANE=0.00
		SCAN_DEVICE=STARCHECK
		ELECTROMETER=2D_ARRAY_INTERFACE
		DETECTOR=STARCHECK
		SCAN_CURVETYPE=INPLANE_PROFILE
		SCAN_DEPTH=0.00
		SCAN_OFFAXIS_CROSSPLANE=0.00
		SCAN_ANGLE=0.00
		SCAN_DIAGONAL=SECOND_DIAGONAL
		MEAS_PRESET=TIME_PRESET
		MEAS_TIME=10.000
		MEAS_UNIT=GY
		PRESSURE=1013.25
		TEMPERATURE=20.00
		NORM_TEMPERATURE=20.00
		CORRECTION_FACTOR=1.0000
		CORRECTIONS=AIR_DENSITY_CORR;
		BEGIN_DATA
			-172.40		2.9678E-03
			-169.40		3.2774E-03
			-166.40		2.9800E-03
			-163.40		3.1293E-03
			-160.40		3.4350E-03
			-157.40		3.8811E-03
			-154.40		4.3295E-03
			-151.40		4.5541E-03
			-148.40		4.5976E-03
			-145.40		5.1221E-03
			-142.40		6.0218E-03
			-139.40		6.1121E-03
			-136.40		5.9170E-03
			-133.40		6.9723E-03
			-130.40		7.4249E-03
			-127.40		8.2765E-03
			-124.40		9.1345E-03
			-121.40		9.7229E-03
			-118.40		10.253E-03
			-115.40		10.969E-03
			-112.40		11.376E-03
			-109.40		13.134E-03
			-106.40		14.330E-03
			-103.40		15.834E-03
			-100.40		18.041E-03
			-97.40		18.996E-03
			-94.40		21.025E-03
			-91.40		23.842E-03
			-88.40		26.179E-03
			-85.40		30.011E-03
			-82.40		35.905E-03
			-79.40		46.432E-03
			-76.40		69.641E-03
			-73.40		153.26E-03
			-70.40		312.89E-03
			-67.40		473.19E-03
			-64.40		579.19E-03
			-61.40		619.87E-03
			-58.40		638.68E-03
			-55.40		645.90E-03
			-52.40		655.22E-03
			-49.40		658.60E-03
			-46.40		660.52E-03
			-43.40		663.43E-03
			-40.40		664.68E-03
			-37.40		667.31E-03
			-34.40		666.50E-03
			-31.40		666.78E-03
			-28.40		668.59E-03
			-25.40		667.33E-03
			-22.40		666.16E-03
			-19.40		670.05E-03
			-16.40		670.87E-03
			-13.40		672.91E-03
			0.00		669.36E-03
			13.40		668.39E-03
			16.40		666.47E-03
			19.40		663.46E-03
			22.40		661.25E-03
			25.40		660.59E-03
			28.40		658.91E-03
			31.40		656.91E-03
			34.40		653.32E-03
			37.40		652.14E-03
			40.40		649.59E-03
			43.40		646.29E-03
			46.40		642.79E-03
			49.40		634.23E-03
			52.40		617.05E-03
			55.40		584.61E-03
			58.40		506.42E-03
			61.40		369.05E-03
			64.40		213.38E-03
			67.40		102.70E-03
			70.40		57.830E-03
			73.40		41.852E-03
			76.40		34.442E-03
			79.40		29.700E-03
			82.40		26.665E-03
			85.40		23.903E-03
			88.40		22.159E-03
			91.40		19.516E-03
			94.40		17.604E-03
			97.40		16.180E-03
			100.40		13.992E-03
			103.40		13.055E-03
			106.40		12.139E-03
			109.40		11.071E-03
			112.40		10.300E-03
			115.40		9.4165E-03
			118.40		8.8403E-03
			121.40		7.7379E-03
			124.40		7.2569E-03
			127.40		6.7178E-03
			130.40		7.3427E-03
			133.40		6.3298E-03
			136.40		5.3928E-03
			139.40		5.9297E-03
			142.40		4.9826E-03
			145.40		5.4854E-03
			148.40		4.3645E-03
			151.40		3.7867E-03
			154.40		4.1010E-03
			157.40		3.5904E-03
			160.40		3.7648E-03
			163.40		3.7262E-03
			166.40		3.1889E-03
			169.40		2.9157E-03
			172.40		2.8716E-03
		END_DATA
	END_SCAN  16
END_SCAN_DATA
