BEGIN_SCAN_DATA
	FORMAT=CC-Export V1.9                  
	FILE_CREATION_DATE=07-Oct-2010 14:09:52
	LAST_MODIFIED=07-Oct-2010 14:09:52
	BEGIN_SCAN  1
		TASK_NAME=MODE_INTERVAL
		PROGRAM=BeamAdjust 1.2
		MEAS_DATE=07-Oct-2010 14:09:52
		LINAC=A4
		MODALITY=X
		INPLANE_AXIS_DIR=TARGET_GUN
		CROSSPLANE_AXIS_DIR=LEFT_RIGHT
		DEPTH_AXIS_DIR=UP_DOWN
		ENERGY=6.00
		SSD=950.00
		WEDGE=None
		FIELD_INPLANE=100.00
		FIELD_CROSSPLANE=100.00
		FIELD_TYPE=RECTANGULAR
		GANTRY=0.00
		GANTRY_UPRIGHT_POSITION=0
		GANTRY_ROTATION=CW
		COLL_ANGLE=90.00
		COLL_OFFSET_INPLANE=0.00
		COLL_OFFSET_CROSSPLANE=0.00
		SCAN_DEVICE=STARCHECK
		ELECTROMETER=2D_ARRAY_INTERFACE
		DETECTOR=STARCHECK
		SCAN_CURVETYPE=CROSSPLANE_PROFILE
		SCAN_DEPTH=0.00
		SCAN_OFFAXIS_INPLANE=-130.00
		SCAN_ANGLE=0.00
		SCAN_DIAGONAL=NOT_DIAGONAL
		MEAS_PRESET=TIME_PRESET
		MEAS_TIME=10.000
		MEAS_UNIT=GY
		PRESSURE=1013.25
		TEMPERATURE=20.00
		NORM_TEMPERATURE=20.00
		CORRECTION_FACTOR=1.0000
		CORRECTIONS=AIR_DENSITY_CORR;
		BEGIN_DATA
			-130.00		2.5772E-03
			-80.00		4.6542E-03
			-40.00		8.1857E-03
			40.00		7.4577E-03
			80.00		4.3304E-03
			130.00		2.0930E-03
		END_DATA
	END_SCAN  1
	BEGIN_SCAN  2
		TASK_NAME=MODE_INTERVAL
		PROGRAM=BeamAdjust 1.2
		MEAS_DATE=07-Oct-2010 14:09:52
		LINAC=A4
		MODALITY=X
		INPLANE_AXIS_DIR=TARGET_GUN
		CROSSPLANE_AXIS_DIR=LEFT_RIGHT
		DEPTH_AXIS_DIR=UP_DOWN
		ENERGY=6.00
		SSD=950.00
		WEDGE=None
		FIELD_INPLANE=100.00
		FIELD_CROSSPLANE=100.00
		FIELD_TYPE=RECTANGULAR
		GANTRY=0.00
		GANTRY_UPRIGHT_POSITION=0
		GANTRY_ROTATION=CW
		COLL_ANGLE=90.00
		COLL_OFFSET_INPLANE=0.00
		COLL_OFFSET_CROSSPLANE=0.00
		SCAN_DEVICE=STARCHECK
		ELECTROMETER=2D_ARRAY_INTERFACE
		DETECTOR=STARCHECK
		SCAN_CURVETYPE=CROSSPLANE_PROFILE
		SCAN_DEPTH=0.00
		SCAN_OFFAXIS_INPLANE=-100.00
		SCAN_ANGLE=0.00
		SCAN_DIAGONAL=NOT_DIAGONAL
		MEAS_PRESET=TIME_PRESET
		MEAS_TIME=10.000
		MEAS_UNIT=GY
		PRESSURE=1013.25
		TEMPERATURE=20.00
		NORM_TEMPERATURE=20.00
		CORRECTION_FACTOR=1.0000
		CORRECTIONS=AIR_DENSITY_CORR;
		BEGIN_DATA
			-60.00		11.589E-03
			-30.00		16.738E-03
			30.00		17.327E-03
			60.00		11.397E-03
		END_DATA
	END_SCAN  2
	BEGIN_SCAN  3
		TASK_NAME=MODE_INTERVAL
		PROGRAM=BeamAdjust 1.2
		MEAS_DATE=07-Oct-2010 14:09:52
		LINAC=A4
		MODALITY=X
		INPLANE_AXIS_DIR=TARGET_GUN
		CROSSPLANE_AXIS_DIR=LEFT_RIGHT
		DEPTH_AXIS_DIR=UP_DOWN
		ENERGY=6.00
		SSD=950.00
		WEDGE=None
		FIELD_INPLANE=100.00
		FIELD_CROSSPLANE=100.00
		FIELD_TYPE=RECTANGULAR
		GANTRY=0.00
		GANTRY_UPRIGHT_POSITION=0
		GANTRY_ROTATION=CW
		COLL_ANGLE=90.00
		COLL_OFFSET_INPLANE=0.00
		COLL_OFFSET_CROSSPLANE=0.00
		SCAN_DEVICE=STARCHECK
		ELECTROMETER=2D_ARRAY_INTERFACE
		DETECTOR=STARCHECK
		SCAN_CURVETYPE=CROSSPLANE_PROFILE
		SCAN_DEPTH=0.00
		SCAN_OFFAXIS_INPLANE=-50.00
		SCAN_ANGLE=0.00
		SCAN_DIAGONAL=NOT_DIAGONAL
		MEAS_PRESET=TIME_PRESET
		MEAS_TIME=10.000
		MEAS_UNIT=GY
		PRESSURE=1013.25
		TEMPERATURE=20.00
		NORM_TEMPERATURE=20.00
		CORRECTION_FACTOR=1.0000
		CORRECTIONS=AIR_DENSITY_CORR;
		BEGIN_DATA
			-30.00		637.58E-03
			-15.00		637.27E-03
			15.00		644.07E-03
			30.00		640.89E-03
		END_DATA
	END_SCAN  3
	BEGIN_SCAN  4
		TASK_NAME=MODE_INTERVAL
		PROGRAM=BeamAdjust 1.2
		MEAS_DATE=07-Oct-2010 14:09:52
		LINAC=A4
		MODALITY=X
		INPLANE_AXIS_DIR=TARGET_GUN
		CROSSPLANE_AXIS_DIR=LEFT_RIGHT
		DEPTH_AXIS_DIR=UP_DOWN
		ENERGY=6.00
		SSD=950.00
		WEDGE=None
		FIELD_INPLANE=100.00
		FIELD_CROSSPLANE=100.00
		FIELD_TYPE=RECTANGULAR
		GANTRY=0.00
		GANTRY_UPRIGHT_POSITION=0
		GANTRY_ROTATION=CW
		COLL_ANGLE=90.00
		COLL_OFFSET_INPLANE=0.00
		COLL_OFFSET_CROSSPLANE=0.00
		SCAN_DEVICE=STARCHECK
		ELECTROMETER=2D_ARRAY_INTERFACE
		DETECTOR=STARCHECK
		SCAN_CURVETYPE=CROSSPLANE_PROFILE
		SCAN_DEPTH=0.00
		SCAN_OFFAXIS_INPLANE=0.00
		SCAN_ANGLE=0.00
		SCAN_DIAGONAL=NOT_DIAGONAL
		MEAS_PRESET=TIME_PRESET
		MEAS_TIME=10.000
		MEAS_UNIT=GY
		PRESSURE=1013.25
		TEMPERATURE=20.00
		NORM_TEMPERATURE=20.00
		CORRECTION_FACTOR=1.0000
		CORRECTIONS=AIR_DENSITY_CORR;
		BEGIN_DATA
			-126.00		6.2275E-03
			-123.00		8.0476E-03
			-120.00		7.8406E-03
			-117.00		8.3599E-03
			-114.00		8.9374E-03
			-111.00		9.4284E-03
			-108.00		10.361E-03
			-105.00		10.833E-03
			-102.00		11.460E-03
			-99.00		12.724E-03
			-96.00		13.636E-03
			-93.00		15.350E-03
			-90.00		16.513E-03
			-87.00		17.801E-03
			-84.00		20.453E-03
			-81.00		21.881E-03
			-78.00		23.983E-03
			-75.00		27.177E-03
			-72.00		29.651E-03
			-69.00		34.207E-03
			-66.00		39.047E-03
			-63.00		44.953E-03
			-60.00		55.255E-03
			-57.00		72.564E-03
			-54.00		115.15E-03
			-51.00		294.36E-03
			-48.00		556.89E-03
			-45.00		618.03E-03
			-42.00		636.89E-03
			-39.00		649.56E-03
			-36.00		655.05E-03
			-33.00		655.78E-03
			-30.00		657.17E-03
			-27.00		660.00E-03
			-24.00		662.49E-03
			-21.00		661.68E-03
			-18.00		667.26E-03
			-15.00		667.23E-03
			-12.00		667.15E-03
			-9.00		670.54E-03
			-6.00		670.64E-03
			0.00		670.11E-03
			6.00		672.21E-03
			9.00		671.77E-03
			12.00		667.83E-03
			15.00		666.65E-03
			18.00		666.71E-03
			21.00		664.51E-03
			24.00		661.65E-03
			27.00		665.21E-03
			30.00		663.77E-03
			33.00		661.18E-03
			36.00		657.95E-03
			39.00		651.40E-03
			42.00		640.10E-03
			45.00		615.22E-03
			48.00		524.26E-03
			51.00		230.26E-03
			54.00		101.31E-03
			57.00		67.857E-03
			60.00		52.692E-03
			63.00		43.959E-03
			66.00		37.403E-03
			69.00		32.673E-03
			72.00		29.525E-03
			75.00		25.997E-03
			78.00		23.529E-03
			81.00		21.216E-03
			84.00		19.378E-03
			87.00		17.785E-03
			90.00		16.381E-03
			93.00		15.542E-03
			96.00		13.349E-03
			99.00		12.427E-03
			102.00		11.345E-03
			105.00		10.847E-03
			108.00		10.174E-03
			111.00		8.8302E-03
			114.00		8.5432E-03
			117.00		7.6561E-03
			120.00		7.1001E-03
			123.00		6.8492E-03
			126.00		6.9791E-03
		END_DATA
	END_SCAN  4
	BEGIN_SCAN  5
		TASK_NAME=MODE_INTERVAL
		PROGRAM=BeamAdjust 1.2
		MEAS_DATE=07-Oct-2010 14:09:52
		LINAC=A4
		MODALITY=X
		INPLANE_AXIS_DIR=TARGET_GUN
		CROSSPLANE_AXIS_DIR=LEFT_RIGHT
		DEPTH_AXIS_DIR=UP_DOWN
		ENERGY=6.00
		SSD=950.00
		WEDGE=None
		FIELD_INPLANE=100.00
		FIELD_CROSSPLANE=100.00
		FIELD_TYPE=RECTANGULAR
		GANTRY=0.00
		GANTRY_UPRIGHT_POSITION=0
		GANTRY_ROTATION=CW
		COLL_ANGLE=90.00
		COLL_OFFSET_INPLANE=0.00
		COLL_OFFSET_CROSSPLANE=0.00
		SCAN_DEVICE=STARCHECK
		ELECTROMETER=2D_ARRAY_INTERFACE
		DETECTOR=STARCHECK
		SCAN_CURVETYPE=CROSSPLANE_PROFILE
		SCAN_DEPTH=0.00
		SCAN_OFFAXIS_INPLANE=50.00
		SCAN_ANGLE=0.00
		SCAN_DIAGONAL=NOT_DIAGONAL
		MEAS_PRESET=TIME_PRESET
		MEAS_TIME=10.000
		MEAS_UNIT=GY
		PRESSURE=1013.25
		TEMPERATURE=20.00
		NORM_TEMPERATURE=20.00
		CORRECTION_FACTOR=1.0000
		CORRECTIONS=AIR_DENSITY_CORR;
		BEGIN_DATA
			-30.00		72.025E-03
			-15.00		74.928E-03
			15.00		71.725E-03
			30.00		69.988E-03
		END_DATA
	END_SCAN  5
	BEGIN_SCAN  6
		TASK_NAME=MODE_INTERVAL
		PROGRAM=BeamAdjust 1.2
		MEAS_DATE=07-Oct-2010 14:09:52
		LINAC=A4
		MODALITY=X
		INPLANE_AXIS_DIR=TARGET_GUN
		CROSSPLANE_AXIS_DIR=LEFT_RIGHT
		DEPTH_AXIS_DIR=UP_DOWN
		ENERGY=6.00
		SSD=950.00
		WEDGE=None
		FIELD_INPLANE=100.00
		FIELD_CROSSPLANE=100.00
		FIELD_TYPE=RECTANGULAR
		GANTRY=0.00
		GANTRY_UPRIGHT_POSITION=0
		GANTRY_ROTATION=CW
		COLL_ANGLE=90.00
		COLL_OFFSET_INPLANE=0.00
		COLL_OFFSET_CROSSPLANE=0.00
		SCAN_DEVICE=STARCHECK
		ELECTROMETER=2D_ARRAY_INTERFACE
		DETECTOR=STARCHECK
		SCAN_CURVETYPE=CROSSPLANE_PROFILE
		SCAN_DEPTH=0.00
		SCAN_OFFAXIS_INPLANE=100.00
		SCAN_ANGLE=0.00
		SCAN_DIAGONAL=NOT_DIAGONAL
		MEAS_PRESET=TIME_PRESET
		MEAS_TIME=10.000
		MEAS_UNIT=GY
		PRESSURE=1013.25
		TEMPERATURE=20.00
		NORM_TEMPERATURE=20.00
		CORRECTION_FACTOR=1.0000
		CORRECTIONS=AIR_DENSITY_CORR;
		BEGIN_DATA
			-60.00		9.3290E-03
			-30.00		13.267E-03
			30.00		13.557E-03
			60.00		7.9104E-03
		END_DATA
	END_SCAN  6
	BEGIN_SCAN  7
		TASK_NAME=MODE_INTERVAL
		PROGRAM=BeamAdjust 1.2
		MEAS_DATE=07-Oct-2010 14:09:52
		LINAC=A4
		MODALITY=X
		INPLANE_AXIS_DIR=TARGET_GUN
		CROSSPLANE_AXIS_DIR=LEFT_RIGHT
		DEPTH_AXIS_DIR=UP_DOWN
		ENERGY=6.00
		SSD=950.00
		WEDGE=None
		FIELD_INPLANE=100.00
		FIELD_CROSSPLANE=100.00
		FIELD_TYPE=RECTANGULAR
		GANTRY=0.00
		GANTRY_UPRIGHT_POSITION=0
		GANTRY_ROTATION=CW
		COLL_ANGLE=90.00
		COLL_OFFSET_INPLANE=0.00
		COLL_OFFSET_CROSSPLANE=0.00
		SCAN_DEVICE=STARCHECK
		ELECTROMETER=2D_ARRAY_INTERFACE
		DETECTOR=STARCHECK
		SCAN_CURVETYPE=CROSSPLANE_PROFILE
		SCAN_DEPTH=0.00
		SCAN_OFFAXIS_INPLANE=130.00
		SCAN_ANGLE=0.00
		SCAN_DIAGONAL=NOT_DIAGONAL
		MEAS_PRESET=TIME_PRESET
		MEAS_TIME=10.000
		MEAS_UNIT=GY
		PRESSURE=1013.25
		TEMPERATURE=20.00
		NORM_TEMPERATURE=20.00
		CORRECTION_FACTOR=1.0000
		CORRECTIONS=AIR_DENSITY_CORR;
		BEGIN_DATA
			-130.00		1.7588E-03
			-80.00		3.7671E-03
			-40.00		6.6476E-03
			40.00		6.9551E-03
			80.00		3.7576E-03
			130.00		2.1111E-03
		END_DATA
	END_SCAN  7
	BEGIN_SCAN  8
		TASK_NAME=MODE_INTERVAL
		PROGRAM=BeamAdjust 1.2
		MEAS_DATE=07-Oct-2010 14:09:52
		LINAC=A4
		MODALITY=X
		INPLANE_AXIS_DIR=TARGET_GUN
		CROSSPLANE_AXIS_DIR=LEFT_RIGHT
		DEPTH_AXIS_DIR=UP_DOWN
		ENERGY=6.00
		SSD=950.00
		WEDGE=None
		FIELD_INPLANE=100.00
		FIELD_CROSSPLANE=100.00
		FIELD_TYPE=RECTANGULAR
		GANTRY=0.00
		GANTRY_UPRIGHT_POSITION=0
		GANTRY_ROTATION=CW
		COLL_ANGLE=90.00
		COLL_OFFSET_INPLANE=0.00
		COLL_OFFSET_CROSSPLANE=0.00
		SCAN_DEVICE=STARCHECK
		ELECTROMETER=2D_ARRAY_INTERFACE
		DETECTOR=STARCHECK
		SCAN_CURVETYPE=INPLANE_PROFILE
		SCAN_DEPTH=0.00
		SCAN_OFFAXIS_CROSSPLANE=-130.00
		SCAN_ANGLE=0.00
		SCAN_DIAGONAL=NOT_DIAGONAL
		MEAS_PRESET=TIME_PRESET
		MEAS_TIME=10.000
		MEAS_UNIT=GY
		PRESSURE=1013.25
		TEMPERATURE=20.00
		NORM_TEMPERATURE=20.00
		CORRECTION_FACTOR=1.0000
		CORRECTIONS=AIR_DENSITY_CORR;
		BEGIN_DATA
			-130.00		2.5772E-03
			-125.00		2.9784E-03
			-120.00		3.1171E-03
			-115.00		3.3968E-03
			-110.00		3.7679E-03
			-105.00		4.0013E-03
			-100.00		4.3544E-03
			-95.00		4.5446E-03
			-90.00		5.1455E-03
			-85.00		4.6647E-03
			-80.00		5.0071E-03
			-75.00		5.2032E-03
			-70.00		5.0009E-03
			-65.00		5.3955E-03
			-60.00		5.3604E-03
			-55.00		6.4020E-03
			-50.00		4.3204E-03
			-45.00		4.8274E-03
			-40.00		4.9581E-03
			-35.00		5.5579E-03
			-30.00		5.5693E-03
			-25.00		5.2424E-03
			-20.00		5.5254E-03
			-15.00		4.8565E-03
			-10.00		6.1773E-03
			-5.00		6.4023E-03
			0.00		5.8774E-03
			5.00		6.0837E-03
			10.00		5.7752E-03
			15.00		5.5315E-03
			20.00		5.6217E-03
			25.00		5.4111E-03
			30.00		5.3288E-03
			35.00		5.4346E-03
			40.00		4.9439E-03
			45.00		4.6269E-03
			50.00		4.8212E-03
			55.00		4.3769E-03
			60.00		4.5331E-03
			65.00		3.8180E-03
			70.00		3.8824E-03
			75.00		3.6492E-03
			80.00		3.5909E-03
			85.00		3.3812E-03
			90.00		3.3005E-03
			95.00		3.1485E-03
			100.00		3.0474E-03
			105.00		2.4023E-03
			110.00		2.1220E-03
			115.00		2.6396E-03
			120.00		2.0725E-03
			125.00		2.9542E-03
			130.00		1.7588E-03
		END_DATA
	END_SCAN  8
	BEGIN_SCAN  9
		TASK_NAME=MODE_INTERVAL
		PROGRAM=BeamAdjust 1.2
		MEAS_DATE=07-Oct-2010 14:09:52
		LINAC=A4
		MODALITY=X
		INPLANE_AXIS_DIR=TARGET_GUN
		CROSSPLANE_AXIS_DIR=LEFT_RIGHT
		DEPTH_AXIS_DIR=UP_DOWN
		ENERGY=6.00
		SSD=950.00
		WEDGE=None
		FIELD_INPLANE=100.00
		FIELD_CROSSPLANE=100.00
		FIELD_TYPE=RECTANGULAR
		GANTRY=0.00
		GANTRY_UPRIGHT_POSITION=0
		GANTRY_ROTATION=CW
		COLL_ANGLE=90.00
		COLL_OFFSET_INPLANE=0.00
		COLL_OFFSET_CROSSPLANE=0.00
		SCAN_DEVICE=STARCHECK
		ELECTROMETER=2D_ARRAY_INTERFACE
		DETECTOR=STARCHECK
		SCAN_CURVETYPE=INPLANE_PROFILE
		SCAN_DEPTH=0.00
		SCAN_OFFAXIS_CROSSPLANE=-100.00
		SCAN_ANGLE=0.00
		SCAN_DIAGONAL=NOT_DIAGONAL
		MEAS_PRESET=TIME_PRESET
		MEAS_TIME=10.000
		MEAS_UNIT=GY
		PRESSURE=1013.25
		TEMPERATURE=20.00
		NORM_TEMPERATURE=20.00
		CORRECTION_FACTOR=1.0000
		CORRECTIONS=AIR_DENSITY_CORR;
		BEGIN_DATA
			-60.00		9.1057E-03
			-30.00		10.824E-03
			30.00		9.9519E-03
			60.00		7.4364E-03
		END_DATA
	END_SCAN  9
	BEGIN_SCAN  10
		TASK_NAME=MODE_INTERVAL
		PROGRAM=BeamAdjust 1.2
		MEAS_DATE=07-Oct-2010 14:09:52
		LINAC=A4
		MODALITY=X
		INPLANE_AXIS_DIR=TARGET_GUN
		CROSSPLANE_AXIS_DIR=LEFT_RIGHT
		DEPTH_AXIS_DIR=UP_DOWN
		ENERGY=6.00
		SSD=950.00
		WEDGE=None
		FIELD_INPLANE=100.00
		FIELD_CROSSPLANE=100.00
		FIELD_TYPE=RECTANGULAR
		GANTRY=0.00
		GANTRY_UPRIGHT_POSITION=0
		GANTRY_ROTATION=CW
		COLL_ANGLE=90.00
		COLL_OFFSET_INPLANE=0.00
		COLL_OFFSET_CROSSPLANE=0.00
		SCAN_DEVICE=STARCHECK
		ELECTROMETER=2D_ARRAY_INTERFACE
		DETECTOR=STARCHECK
		SCAN_CURVETYPE=INPLANE_PROFILE
		SCAN_DEPTH=0.00
		SCAN_OFFAXIS_CROSSPLANE=-50.00
		SCAN_ANGLE=0.00
		SCAN_DIAGONAL=NOT_DIAGONAL
		MEAS_PRESET=TIME_PRESET
		MEAS_TIME=10.000
		MEAS_UNIT=GY
		PRESSURE=1013.25
		TEMPERATURE=20.00
		NORM_TEMPERATURE=20.00
		CORRECTION_FACTOR=1.0000
		CORRECTIONS=AIR_DENSITY_CORR;
		BEGIN_DATA
			-30.00		401.75E-03
			-15.00		397.24E-03
			15.00		385.90E-03
			30.00		371.74E-03
		END_DATA
	END_SCAN  10
	BEGIN_SCAN  11
		TASK_NAME=MODE_INTERVAL
		PROGRAM=BeamAdjust 1.2
		MEAS_DATE=07-Oct-2010 14:09:52
		LINAC=A4
		MODALITY=X
		INPLANE_AXIS_DIR=TARGET_GUN
		CROSSPLANE_AXIS_DIR=LEFT_RIGHT
		DEPTH_AXIS_DIR=UP_DOWN
		ENERGY=6.00
		SSD=950.00
		WEDGE=None
		FIELD_INPLANE=100.00
		FIELD_CROSSPLANE=100.00
		FIELD_TYPE=RECTANGULAR
		GANTRY=0.00
		GANTRY_UPRIGHT_POSITION=0
		GANTRY_ROTATION=CW
		COLL_ANGLE=90.00
		COLL_OFFSET_INPLANE=0.00
		COLL_OFFSET_CROSSPLANE=0.00
		SCAN_DEVICE=STARCHECK
		ELECTROMETER=2D_ARRAY_INTERFACE
		DETECTOR=STARCHECK
		SCAN_CURVETYPE=INPLANE_PROFILE
		SCAN_DEPTH=0.00
		SCAN_OFFAXIS_CROSSPLANE=0.00
		SCAN_ANGLE=0.00
		SCAN_DIAGONAL=NOT_DIAGONAL
		MEAS_PRESET=TIME_PRESET
		MEAS_TIME=10.000
		MEAS_UNIT=GY
		PRESSURE=1013.25
		TEMPERATURE=20.00
		NORM_TEMPERATURE=20.00
		CORRECTION_FACTOR=1.0000
		CORRECTIONS=AIR_DENSITY_CORR;
		BEGIN_DATA
			-126.00		10.158E-03
			-123.00		10.635E-03
			-120.00		11.664E-03
			-117.00		12.544E-03
			-114.00		13.642E-03
			-111.00		13.904E-03
			-108.00		15.398E-03
			-105.00		16.798E-03
			-102.00		18.110E-03
			-99.00		19.304E-03
			-96.00		20.718E-03
			-93.00		23.323E-03
			-90.00		25.145E-03
			-87.00		27.162E-03
			-84.00		29.852E-03
			-81.00		33.269E-03
			-78.00		36.354E-03
			-75.00		39.587E-03
			-72.00		44.969E-03
			-69.00		50.600E-03
			-66.00		60.482E-03
			-63.00		76.622E-03
			-60.00		117.55E-03
			-57.00		253.69E-03
			-54.00		522.24E-03
			-51.00		616.52E-03
			-48.00		643.45E-03
			-45.00		653.63E-03
			-42.00		658.76E-03
			-39.00		663.09E-03
			-36.00		664.90E-03
			-33.00		666.09E-03
			-30.00		668.14E-03
			-27.00		668.95E-03
			-24.00		668.58E-03
			-21.00		669.09E-03
			-18.00		674.50E-03
			-15.00		669.96E-03
			-12.00		669.56E-03
			-9.00		669.10E-03
			-6.00		668.15E-03
			0.00		670.11E-03
			6.00		672.84E-03
			9.00		669.32E-03
			12.00		667.94E-03
			15.00		666.45E-03
			18.00		663.11E-03
			21.00		662.27E-03
			24.00		658.05E-03
			27.00		657.89E-03
			30.00		651.29E-03
			33.00		645.45E-03
			36.00		636.06E-03
			39.00		603.22E-03
			42.00		487.13E-03
			45.00		224.15E-03
			48.00		109.57E-03
			51.00		74.170E-03
			54.00		58.176E-03
			57.00		50.000E-03
			60.00		43.872E-03
			63.00		39.287E-03
			66.00		35.643E-03
			69.00		32.073E-03
			72.00		29.365E-03
			75.00		26.741E-03
			78.00		23.689E-03
			81.00		22.178E-03
			84.00		20.931E-03
			87.00		19.096E-03
			90.00		18.210E-03
			93.00		16.432E-03
			96.00		16.008E-03
			99.00		13.961E-03
			102.00		12.857E-03
			105.00		12.311E-03
			108.00		11.320E-03
			111.00		11.165E-03
			114.00		9.9393E-03
			117.00		9.5129E-03
			120.00		8.7437E-03
			123.00		8.4086E-03
			126.00		7.3556E-03
		END_DATA
	END_SCAN  11
	BEGIN_SCAN  12
		TASK_NAME=MODE_INTERVAL
		PROGRAM=BeamAdjust 1.2
		MEAS_DATE=07-Oct-2010 14:09:52
		LINAC=A4
		MODALITY=X
		INPLANE_AXIS_DIR=TARGET_GUN
		CROSSPLANE_AXIS_DIR=LEFT_RIGHT
		DEPTH_AXIS_DIR=UP_DOWN
		ENERGY=6.00
		SSD=950.00
		WEDGE=None
		FIELD_INPLANE=100.00
		FIELD_CROSSPLANE=100.00
		FIELD_TYPE=RECTANGULAR
		GANTRY=0.00
		GANTRY_UPRIGHT_POSITION=0
		GANTRY_ROTATION=CW
		COLL_ANGLE=90.00
		COLL_OFFSET_INPLANE=0.00
		COLL_OFFSET_CROSSPLANE=0.00
		SCAN_DEVICE=STARCHECK
		ELECTROMETER=2D_ARRAY_INTERFACE
		DETECTOR=STARCHECK
		SCAN_CURVETYPE=INPLANE_PROFILE
		SCAN_DEPTH=0.00
		SCAN_OFFAXIS_CROSSPLANE=50.00
		SCAN_ANGLE=0.00
		SCAN_DIAGONAL=NOT_DIAGONAL
		MEAS_PRESET=TIME_PRESET
		MEAS_TIME=10.000
		MEAS_UNIT=GY
		PRESSURE=1013.25
		TEMPERATURE=20.00
		NORM_TEMPERATURE=20.00
		CORRECTION_FACTOR=1.0000
		CORRECTIONS=AIR_DENSITY_CORR;
		BEGIN_DATA
			-30.00		326.27E-03
			-15.00		334.03E-03
			15.00		340.12E-03
			30.00		338.05E-03
		END_DATA
	END_SCAN  12
	BEGIN_SCAN  13
		TASK_NAME=MODE_INTERVAL
		PROGRAM=BeamAdjust 1.2
		MEAS_DATE=07-Oct-2010 14:09:52
		LINAC=A4
		MODALITY=X
		INPLANE_AXIS_DIR=TARGET_GUN
		CROSSPLANE_AXIS_DIR=LEFT_RIGHT
		DEPTH_AXIS_DIR=UP_DOWN
		ENERGY=6.00
		SSD=950.00
		WEDGE=None
		FIELD_INPLANE=100.00
		FIELD_CROSSPLANE=100.00
		FIELD_TYPE=RECTANGULAR
		GANTRY=0.00
		GANTRY_UPRIGHT_POSITION=0
		GANTRY_ROTATION=CW
		COLL_ANGLE=90.00
		COLL_OFFSET_INPLANE=0.00
		COLL_OFFSET_CROSSPLANE=0.00
		SCAN_DEVICE=STARCHECK
		ELECTROMETER=2D_ARRAY_INTERFACE
		DETECTOR=STARCHECK
		SCAN_CURVETYPE=INPLANE_PROFILE
		SCAN_DEPTH=0.00
		SCAN_OFFAXIS_CROSSPLANE=100.00
		SCAN_ANGLE=0.00
		SCAN_DIAGONAL=NOT_DIAGONAL
		MEAS_PRESET=TIME_PRESET
		MEAS_TIME=10.000
		MEAS_UNIT=GY
		PRESSURE=1013.25
		TEMPERATURE=20.00
		NORM_TEMPERATURE=20.00
		CORRECTION_FACTOR=1.0000
		CORRECTIONS=AIR_DENSITY_CORR;
		BEGIN_DATA
			-60.00		8.5420E-03
			-30.00		10.492E-03
			30.00		10.198E-03
			60.00		7.2654E-03
		END_DATA
	END_SCAN  13
	BEGIN_SCAN  14
		TASK_NAME=MODE_INTERVAL
		PROGRAM=BeamAdjust 1.2
		MEAS_DATE=07-Oct-2010 14:09:52
		LINAC=A4
		MODALITY=X
		INPLANE_AXIS_DIR=TARGET_GUN
		CROSSPLANE_AXIS_DIR=LEFT_RIGHT
		DEPTH_AXIS_DIR=UP_DOWN
		ENERGY=6.00
		SSD=950.00
		WEDGE=None
		FIELD_INPLANE=100.00
		FIELD_CROSSPLANE=100.00
		FIELD_TYPE=RECTANGULAR
		GANTRY=0.00
		GANTRY_UPRIGHT_POSITION=0
		GANTRY_ROTATION=CW
		COLL_ANGLE=90.00
		COLL_OFFSET_INPLANE=0.00
		COLL_OFFSET_CROSSPLANE=0.00
		SCAN_DEVICE=STARCHECK
		ELECTROMETER=2D_ARRAY_INTERFACE
		DETECTOR=STARCHECK
		SCAN_CURVETYPE=INPLANE_PROFILE
		SCAN_DEPTH=0.00
		SCAN_OFFAXIS_CROSSPLANE=130.00
		SCAN_ANGLE=0.00
		SCAN_DIAGONAL=NOT_DIAGONAL
		MEAS_PRESET=TIME_PRESET
		MEAS_TIME=10.000
		MEAS_UNIT=GY
		PRESSURE=1013.25
		TEMPERATURE=20.00
		NORM_TEMPERATURE=20.00
		CORRECTION_FACTOR=1.0000
		CORRECTIONS=AIR_DENSITY_CORR;
		BEGIN_DATA
			-130.00		2.0930E-03
			-125.00		2.7867E-03
			-120.00		2.5318E-03
			-115.00		2.7122E-03
			-110.00		2.7566E-03
			-105.00		2.9680E-03
			-100.00		3.3627E-03
			-95.00		3.0805E-03
			-90.00		3.0286E-03
			-85.00		3.9110E-03
			-80.00		3.6253E-03
			-75.00		4.0651E-03
			-70.00		4.6191E-03
			-65.00		4.2344E-03
			-60.00		4.8847E-03
			-55.00		4.4004E-03
			-50.00		4.2339E-03
			-45.00		5.1149E-03
			-40.00		4.7856E-03
			-35.00		5.2862E-03
			-30.00		5.4047E-03
			-25.00		4.9506E-03
			-20.00		5.6161E-03
			-15.00		5.2852E-03
			-10.00		4.9247E-03
			-5.00		6.1834E-03
			0.00		6.3624E-03
			5.00		5.4497E-03
			10.00		5.6279E-03
			15.00		5.3149E-03
			20.00		5.1648E-03
			25.00		5.3249E-03
			30.00		4.7118E-03
			35.00		5.1295E-03
			40.00		5.3812E-03
			45.00		5.1479E-03
			50.00		4.3679E-03
			55.00		5.2912E-03
			60.00		4.1428E-03
			65.00		4.2035E-03
			70.00		4.2526E-03
			75.00		3.9947E-03
			80.00		3.9611E-03
			85.00		3.4352E-03
			90.00		3.1498E-03
			95.00		3.3192E-03
			100.00		3.3313E-03
			105.00		2.6291E-03
			110.00		2.4669E-03
			115.00		2.5576E-03
			120.00		2.5767E-03
			125.00		2.2860E-03
			130.00		2.1111E-03
		END_DATA
	END_SCAN  14
	BEGIN_SCAN  15
		TASK_NAME=MODE_INTERVAL
		PROGRAM=BeamAdjust 1.2
		MEAS_DATE=07-Oct-2010 14:09:52
		LINAC=A4
		MODALITY=X
		INPLANE_AXIS_DIR=TARGET_GUN
		CROSSPLANE_AXIS_DIR=LEFT_RIGHT
		DEPTH_AXIS_DIR=UP_DOWN
		ENERGY=6.00
		SSD=950.00
		WEDGE=None
		FIELD_INPLANE=100.00
		FIELD_CROSSPLANE=100.00
		FIELD_TYPE=RECTANGULAR
		GANTRY=0.00
		GANTRY_UPRIGHT_POSITION=0
		GANTRY_ROTATION=CW
		COLL_ANGLE=90.00
		COLL_OFFSET_INPLANE=0.00
		COLL_OFFSET_CROSSPLANE=0.00
		SCAN_DEVICE=STARCHECK
		ELECTROMETER=2D_ARRAY_INTERFACE
		DETECTOR=STARCHECK
		SCAN_CURVETYPE=INPLANE_PROFILE
		SCAN_DEPTH=0.00
		SCAN_OFFAXIS_CROSSPLANE=0.00
		SCAN_ANGLE=0.00
		SCAN_DIAGONAL=FIRST_DIAGONAL
		MEAS_PRESET=TIME_PRESET
		MEAS_TIME=10.000
		MEAS_UNIT=GY
		PRESSURE=1013.25
		TEMPERATURE=20.00
		NORM_TEMPERATURE=20.00
		CORRECTION_FACTOR=1.0000
		CORRECTIONS=AIR_DENSITY_CORR;
		BEGIN_DATA
			-172.40		2.7760E-03
			-169.40		3.2782E-03
			-166.40		4.5955E-03
			-163.40		3.9107E-03
			-160.40		4.0698E-03
			-157.40		4.1973E-03
			-154.40		4.3075E-03
			-151.40		4.3893E-03
			-148.40		5.0837E-03
			-145.40		5.6439E-03
			-142.40		5.9862E-03
			-139.40		6.5101E-03
			-136.40		6.4429E-03
			-133.40		7.7307E-03
			-130.40		7.7667E-03
			-127.40		8.2354E-03
			-124.40		9.4156E-03
			-121.40		9.7223E-03
			-118.40		10.461E-03
			-115.40		11.714E-03
			-112.40		12.259E-03
			-109.40		13.819E-03
			-106.40		14.926E-03
			-103.40		15.980E-03
			-100.40		17.457E-03
			-97.40		20.021E-03
			-94.40		22.266E-03
			-91.40		24.893E-03
			-88.40		28.495E-03
			-85.40		32.777E-03
			-82.40		40.181E-03
			-79.40		53.619E-03
			-76.40		92.731E-03
			-73.40		219.73E-03
			-70.40		387.89E-03
			-67.40		528.03E-03
			-64.40		598.68E-03
			-61.40		624.84E-03
			-58.40		636.60E-03
			-55.40		645.30E-03
			-52.40		650.05E-03
			-49.40		654.12E-03
			-46.40		655.60E-03
			-43.40		657.80E-03
			-40.40		660.35E-03
			-37.40		664.30E-03
			-34.40		663.57E-03
			-31.40		664.78E-03
			-28.40		663.35E-03
			-25.40		666.56E-03
			-22.40		667.69E-03
			-19.40		668.22E-03
			-16.40		670.52E-03
			-13.40		670.94E-03
			0.00		670.11E-03
			13.40		670.23E-03
			16.40		666.41E-03
			19.40		666.24E-03
			22.40		665.86E-03
			25.40		663.49E-03
			28.40		662.37E-03
			31.40		658.87E-03
			34.40		655.26E-03
			37.40		656.78E-03
			40.40		652.96E-03
			43.40		648.36E-03
			46.40		643.77E-03
			49.40		633.06E-03
			52.40		616.50E-03
			55.40		569.96E-03
			58.40		471.17E-03
			61.40		321.04E-03
			64.40		176.99E-03
			67.40		88.046E-03
			70.40		53.182E-03
			73.40		40.942E-03
			76.40		33.853E-03
			79.40		29.130E-03
			82.40		26.108E-03
			85.40		22.743E-03
			88.40		21.289E-03
			91.40		18.372E-03
			94.40		17.193E-03
			97.40		15.441E-03
			100.40		14.071E-03
			103.40		13.340E-03
			106.40		12.645E-03
			109.40		11.058E-03
			112.40		9.5523E-03
			115.40		9.0368E-03
			118.40		8.0251E-03
			121.40		7.7042E-03
			124.40		7.1953E-03
			127.40		7.0705E-03
			130.40		6.5981E-03
			133.40		5.8789E-03
			136.40		4.9885E-03
			139.40		4.4210E-03
			142.40		4.7089E-03
			145.40		3.9659E-03
			148.40		5.1578E-03
			151.40		3.6237E-03
			154.40		3.5440E-03
			157.40		3.3559E-03
			160.40		2.5156E-03
			163.40		2.3982E-03
			166.40		2.7189E-03
			169.40		2.4702E-03
			172.40		2.5683E-03
		END_DATA
	END_SCAN  15
	BEGIN_SCAN  16
		TASK_NAME=MODE_INTERVAL
		PROGRAM=BeamAdjust 1.2
		MEAS_DATE=07-Oct-2010 14:09:52
		LINAC=A4
		MODALITY=X
		INPLANE_AXIS_DIR=GUN_TARGET
		CROSSPLANE_AXIS_DIR=LEFT_RIGHT
		DEPTH_AXIS_DIR=UP_DOWN
		ENERGY=6.00
		SSD=950.00
		WEDGE=None
		FIELD_INPLANE=100.00
		FIELD_CROSSPLANE=100.00
		FIELD_TYPE=RECTANGULAR
		GANTRY=0.00
		GANTRY_UPRIGHT_POSITION=0
		GANTRY_ROTATION=CW
		COLL_ANGLE=90.00
		COLL_OFFSET_INPLANE=0.00
		COLL_OFFSET_CROSSPLANE=0.00
		SCAN_DEVICE=STARCHECK
		ELECTROMETER=2D_ARRAY_INTERFACE
		DETECTOR=STARCHECK
		SCAN_CURVETYPE=INPLANE_PROFILE
		SCAN_DEPTH=0.00
		SCAN_OFFAXIS_CROSSPLANE=0.00
		SCAN_ANGLE=0.00
		SCAN_DIAGONAL=SECOND_DIAGONAL
		MEAS_PRESET=TIME_PRESET
		MEAS_TIME=10.000
		MEAS_UNIT=GY
		PRESSURE=1013.25
		TEMPERATURE=20.00
		NORM_TEMPERATURE=20.00
		CORRECTION_FACTOR=1.0000
		CORRECTIONS=AIR_DENSITY_CORR;
		BEGIN_DATA
			-172.40		2.9142E-03
			-169.40		3.2730E-03
			-166.40		3.1856E-03
			-163.40		3.0639E-03
			-160.40		3.6684E-03
			-157.40		3.8618E-03
			-154.40		4.2124E-03
			-151.40		4.5793E-03
			-148.40		4.9204E-03
			-145.40		4.8494E-03
			-142.40		5.7690E-03
			-139.40		6.3450E-03
			-136.40		6.4862E-03
			-133.40		6.6927E-03
			-130.40		7.7560E-03
			-127.40		8.2203E-03
			-124.40		9.3680E-03
			-121.40		9.5087E-03
			-118.40		10.575E-03
			-115.40		11.043E-03
			-112.40		11.589E-03
			-109.40		13.246E-03
			-106.40		14.628E-03
			-103.40		15.738E-03
			-100.40		17.828E-03
			-97.40		19.837E-03
			-94.40		20.934E-03
			-91.40		24.091E-03
			-88.40		26.382E-03
			-85.40		30.373E-03
			-82.40		36.481E-03
			-79.40		47.038E-03
			-76.40		71.451E-03
			-73.40		157.03E-03
			-70.40		315.64E-03
			-67.40		475.07E-03
			-64.40		580.77E-03
			-61.40		621.21E-03
			-58.40		639.58E-03
			-55.40		647.84E-03
			-52.40		656.08E-03
			-49.40		659.70E-03
			-46.40		662.09E-03
			-43.40		664.57E-03
			-40.40		665.89E-03
			-37.40		668.56E-03
			-34.40		667.08E-03
			-31.40		667.81E-03
			-28.40		669.79E-03
			-25.40		668.27E-03
			-22.40		666.92E-03
			-19.40		670.63E-03
			-16.40		671.98E-03
			-13.40		673.22E-03
			0.00		670.11E-03
			13.40		669.27E-03
			16.40		666.44E-03
			19.40		664.37E-03
			22.40		661.69E-03
			25.40		660.96E-03
			28.40		659.83E-03
			31.40		657.06E-03
			34.40		653.54E-03
			37.40		652.05E-03
			40.40		650.10E-03
			43.40		646.23E-03
			46.40		642.04E-03
			49.40		633.35E-03
			52.40		615.03E-03
			55.40		577.11E-03
			58.40		490.40E-03
			61.40		348.57E-03
			64.40		196.27E-03
			67.40		96.050E-03
			70.40		55.759E-03
			73.40		41.432E-03
			76.40		34.132E-03
			79.40		29.190E-03
			82.40		26.805E-03
			85.40		23.792E-03
			88.40		21.495E-03
			91.40		19.939E-03
			94.40		17.484E-03
			97.40		16.032E-03
			100.40		13.837E-03
			103.40		12.902E-03
			106.40		11.947E-03
			109.40		10.683E-03
			112.40		10.288E-03
			115.40		9.3716E-03
			118.40		8.7385E-03
			121.40		7.8064E-03
			124.40		7.1567E-03
			127.40		6.7821E-03
			130.40		6.7739E-03
			133.40		6.6820E-03
			136.40		5.8570E-03
			139.40		5.6335E-03
			142.40		5.1709E-03
			145.40		5.2092E-03
			148.40		4.2186E-03
			151.40		4.1225E-03
			154.40		4.0349E-03
			157.40		3.6910E-03
			160.40		3.4895E-03
			163.40		3.6256E-03
			166.40		3.3599E-03
			169.40		2.3886E-03
			172.40		2.5879E-03
		END_DATA
	END_SCAN  16
END_SCAN_DATA
