BEGIN_SCAN_DATA
	FORMAT=CC-Export V1.9                  
	FILE_CREATION_DATE=07-Oct-2010 14:09:18
	LAST_MODIFIED=07-Oct-2010 14:09:18
	BEGIN_SCAN  1
		TASK_NAME=MODE_INTERVAL
		PROGRAM=BeamAdjust 1.2
		MEAS_DATE=07-Oct-2010 14:09:18
		LINAC=A4
		MODALITY=X
		INPLANE_AXIS_DIR=TARGET_GUN
		CROSSPLANE_AXIS_DIR=LEFT_RIGHT
		DEPTH_AXIS_DIR=UP_DOWN
		ENERGY=6.00
		SSD=950.00
		WEDGE=None
		FIELD_INPLANE=100.00
		FIELD_CROSSPLANE=100.00
		FIELD_TYPE=RECTANGULAR
		GANTRY=0.00
		GANTRY_UPRIGHT_POSITION=0
		GANTRY_ROTATION=CW
		COLL_ANGLE=90.00
		COLL_OFFSET_INPLANE=0.00
		COLL_OFFSET_CROSSPLANE=0.00
		SCAN_DEVICE=STARCHECK
		ELECTROMETER=2D_ARRAY_INTERFACE
		DETECTOR=STARCHECK
		SCAN_CURVETYPE=CROSSPLANE_PROFILE
		SCAN_DEPTH=0.00
		SCAN_OFFAXIS_INPLANE=-130.00
		SCAN_ANGLE=0.00
		SCAN_DIAGONAL=NOT_DIAGONAL
		MEAS_PRESET=TIME_PRESET
		MEAS_TIME=10.000
		MEAS_UNIT=GY
		PRESSURE=1013.25
		TEMPERATURE=20.00
		NORM_TEMPERATURE=20.00
		CORRECTION_FACTOR=1.0000
		CORRECTIONS=AIR_DENSITY_CORR;
		BEGIN_DATA
			-130.00		2.8075E-03
			-80.00		4.8485E-03
			-40.00		8.0718E-03
			40.00		7.6030E-03
			80.00		4.3364E-03
			130.00		2.3788E-03
		END_DATA
	END_SCAN  1
	BEGIN_SCAN  2
		TASK_NAME=MODE_INTERVAL
		PROGRAM=BeamAdjust 1.2
		MEAS_DATE=07-Oct-2010 14:09:18
		LINAC=A4
		MODALITY=X
		INPLANE_AXIS_DIR=TARGET_GUN
		CROSSPLANE_AXIS_DIR=LEFT_RIGHT
		DEPTH_AXIS_DIR=UP_DOWN
		ENERGY=6.00
		SSD=950.00
		WEDGE=None
		FIELD_INPLANE=100.00
		FIELD_CROSSPLANE=100.00
		FIELD_TYPE=RECTANGULAR
		GANTRY=0.00
		GANTRY_UPRIGHT_POSITION=0
		GANTRY_ROTATION=CW
		COLL_ANGLE=90.00
		COLL_OFFSET_INPLANE=0.00
		COLL_OFFSET_CROSSPLANE=0.00
		SCAN_DEVICE=STARCHECK
		ELECTROMETER=2D_ARRAY_INTERFACE
		DETECTOR=STARCHECK
		SCAN_CURVETYPE=CROSSPLANE_PROFILE
		SCAN_DEPTH=0.00
		SCAN_OFFAXIS_INPLANE=-100.00
		SCAN_ANGLE=0.00
		SCAN_DIAGONAL=NOT_DIAGONAL
		MEAS_PRESET=TIME_PRESET
		MEAS_TIME=10.000
		MEAS_UNIT=GY
		PRESSURE=1013.25
		TEMPERATURE=20.00
		NORM_TEMPERATURE=20.00
		CORRECTION_FACTOR=1.0000
		CORRECTIONS=AIR_DENSITY_CORR;
		BEGIN_DATA
			-60.00		12.299E-03
			-30.00		16.640E-03
			30.00		17.576E-03
			60.00		11.473E-03
		END_DATA
	END_SCAN  2
	BEGIN_SCAN  3
		TASK_NAME=MODE_INTERVAL
		PROGRAM=BeamAdjust 1.2
		MEAS_DATE=07-Oct-2010 14:09:18
		LINAC=A4
		MODALITY=X
		INPLANE_AXIS_DIR=TARGET_GUN
		CROSSPLANE_AXIS_DIR=LEFT_RIGHT
		DEPTH_AXIS_DIR=UP_DOWN
		ENERGY=6.00
		SSD=950.00
		WEDGE=None
		FIELD_INPLANE=100.00
		FIELD_CROSSPLANE=100.00
		FIELD_TYPE=RECTANGULAR
		GANTRY=0.00
		GANTRY_UPRIGHT_POSITION=0
		GANTRY_ROTATION=CW
		COLL_ANGLE=90.00
		COLL_OFFSET_INPLANE=0.00
		COLL_OFFSET_CROSSPLANE=0.00
		SCAN_DEVICE=STARCHECK
		ELECTROMETER=2D_ARRAY_INTERFACE
		DETECTOR=STARCHECK
		SCAN_CURVETYPE=CROSSPLANE_PROFILE
		SCAN_DEPTH=0.00
		SCAN_OFFAXIS_INPLANE=-50.00
		SCAN_ANGLE=0.00
		SCAN_DIAGONAL=NOT_DIAGONAL
		MEAS_PRESET=TIME_PRESET
		MEAS_TIME=10.000
		MEAS_UNIT=GY
		PRESSURE=1013.25
		TEMPERATURE=20.00
		NORM_TEMPERATURE=20.00
		CORRECTION_FACTOR=1.0000
		CORRECTIONS=AIR_DENSITY_CORR;
		BEGIN_DATA
			-30.00		639.81E-03
			-15.00		640.48E-03
			15.00		646.37E-03
			30.00		642.46E-03
		END_DATA
	END_SCAN  3
	BEGIN_SCAN  4
		TASK_NAME=MODE_INTERVAL
		PROGRAM=BeamAdjust 1.2
		MEAS_DATE=07-Oct-2010 14:09:18
		LINAC=A4
		MODALITY=X
		INPLANE_AXIS_DIR=TARGET_GUN
		CROSSPLANE_AXIS_DIR=LEFT_RIGHT
		DEPTH_AXIS_DIR=UP_DOWN
		ENERGY=6.00
		SSD=950.00
		WEDGE=None
		FIELD_INPLANE=100.00
		FIELD_CROSSPLANE=100.00
		FIELD_TYPE=RECTANGULAR
		GANTRY=0.00
		GANTRY_UPRIGHT_POSITION=0
		GANTRY_ROTATION=CW
		COLL_ANGLE=90.00
		COLL_OFFSET_INPLANE=0.00
		COLL_OFFSET_CROSSPLANE=0.00
		SCAN_DEVICE=STARCHECK
		ELECTROMETER=2D_ARRAY_INTERFACE
		DETECTOR=STARCHECK
		SCAN_CURVETYPE=CROSSPLANE_PROFILE
		SCAN_DEPTH=0.00
		SCAN_OFFAXIS_INPLANE=0.00
		SCAN_ANGLE=0.00
		SCAN_DIAGONAL=NOT_DIAGONAL
		MEAS_PRESET=TIME_PRESET
		MEAS_TIME=10.000
		MEAS_UNIT=GY
		PRESSURE=1013.25
		TEMPERATURE=20.00
		NORM_TEMPERATURE=20.00
		CORRECTION_FACTOR=1.0000
		CORRECTIONS=AIR_DENSITY_CORR;
		BEGIN_DATA
			-126.00		6.4125E-03
			-123.00		7.2591E-03
			-120.00		7.8198E-03
			-117.00		8.4281E-03
			-114.00		8.7642E-03
			-111.00		9.3288E-03
			-108.00		10.066E-03
			-105.00		11.046E-03
			-102.00		11.517E-03
			-99.00		13.142E-03
			-96.00		13.643E-03
			-93.00		15.509E-03
			-90.00		16.546E-03
			-87.00		18.651E-03
			-84.00		19.895E-03
			-81.00		21.671E-03
			-78.00		23.798E-03
			-75.00		27.264E-03
			-72.00		29.515E-03
			-69.00		34.268E-03
			-66.00		39.277E-03
			-63.00		45.324E-03
			-60.00		54.877E-03
			-57.00		72.951E-03
			-54.00		114.70E-03
			-51.00		294.78E-03
			-48.00		556.41E-03
			-45.00		618.51E-03
			-42.00		636.29E-03
			-39.00		649.72E-03
			-36.00		654.83E-03
			-33.00		655.79E-03
			-30.00		656.95E-03
			-27.00		660.17E-03
			-24.00		662.00E-03
			-21.00		662.20E-03
			-18.00		666.83E-03
			-15.00		667.32E-03
			-12.00		667.00E-03
			-9.00		670.46E-03
			-6.00		670.32E-03
			0.00		670.35E-03
			6.00		673.32E-03
			9.00		670.78E-03
			12.00		667.78E-03
			15.00		666.50E-03
			18.00		666.47E-03
			21.00		664.52E-03
			24.00		661.01E-03
			27.00		665.09E-03
			30.00		663.53E-03
			33.00		660.99E-03
			36.00		657.51E-03
			39.00		651.32E-03
			42.00		640.02E-03
			45.00		614.61E-03
			48.00		524.35E-03
			51.00		229.63E-03
			54.00		101.35E-03
			57.00		67.876E-03
			60.00		52.617E-03
			63.00		43.749E-03
			66.00		37.340E-03
			69.00		32.765E-03
			72.00		29.243E-03
			75.00		26.293E-03
			78.00		23.157E-03
			81.00		21.495E-03
			84.00		19.086E-03
			87.00		17.638E-03
			90.00		16.653E-03
			93.00		14.822E-03
			96.00		13.058E-03
			99.00		12.427E-03
			102.00		11.651E-03
			105.00		10.593E-03
			108.00		10.124E-03
			111.00		8.8095E-03
			114.00		8.5240E-03
			117.00		7.8187E-03
			120.00		6.9622E-03
			123.00		6.9100E-03
			126.00		6.7749E-03
		END_DATA
	END_SCAN  4
	BEGIN_SCAN  5
		TASK_NAME=MODE_INTERVAL
		PROGRAM=BeamAdjust 1.2
		MEAS_DATE=07-Oct-2010 14:09:18
		LINAC=A4
		MODALITY=X
		INPLANE_AXIS_DIR=TARGET_GUN
		CROSSPLANE_AXIS_DIR=LEFT_RIGHT
		DEPTH_AXIS_DIR=UP_DOWN
		ENERGY=6.00
		SSD=950.00
		WEDGE=None
		FIELD_INPLANE=100.00
		FIELD_CROSSPLANE=100.00
		FIELD_TYPE=RECTANGULAR
		GANTRY=0.00
		GANTRY_UPRIGHT_POSITION=0
		GANTRY_ROTATION=CW
		COLL_ANGLE=90.00
		COLL_OFFSET_INPLANE=0.00
		COLL_OFFSET_CROSSPLANE=0.00
		SCAN_DEVICE=STARCHECK
		ELECTROMETER=2D_ARRAY_INTERFACE
		DETECTOR=STARCHECK
		SCAN_CURVETYPE=CROSSPLANE_PROFILE
		SCAN_DEPTH=0.00
		SCAN_OFFAXIS_INPLANE=50.00
		SCAN_ANGLE=0.00
		SCAN_DIAGONAL=NOT_DIAGONAL
		MEAS_PRESET=TIME_PRESET
		MEAS_TIME=10.000
		MEAS_UNIT=GY
		PRESSURE=1013.25
		TEMPERATURE=20.00
		NORM_TEMPERATURE=20.00
		CORRECTION_FACTOR=1.0000
		CORRECTIONS=AIR_DENSITY_CORR;
		BEGIN_DATA
			-30.00		69.384E-03
			-15.00		72.052E-03
			15.00		69.995E-03
			30.00		67.723E-03
		END_DATA
	END_SCAN  5
	BEGIN_SCAN  6
		TASK_NAME=MODE_INTERVAL
		PROGRAM=BeamAdjust 1.2
		MEAS_DATE=07-Oct-2010 14:09:18
		LINAC=A4
		MODALITY=X
		INPLANE_AXIS_DIR=TARGET_GUN
		CROSSPLANE_AXIS_DIR=LEFT_RIGHT
		DEPTH_AXIS_DIR=UP_DOWN
		ENERGY=6.00
		SSD=950.00
		WEDGE=None
		FIELD_INPLANE=100.00
		FIELD_CROSSPLANE=100.00
		FIELD_TYPE=RECTANGULAR
		GANTRY=0.00
		GANTRY_UPRIGHT_POSITION=0
		GANTRY_ROTATION=CW
		COLL_ANGLE=90.00
		COLL_OFFSET_INPLANE=0.00
		COLL_OFFSET_CROSSPLANE=0.00
		SCAN_DEVICE=STARCHECK
		ELECTROMETER=2D_ARRAY_INTERFACE
		DETECTOR=STARCHECK
		SCAN_CURVETYPE=CROSSPLANE_PROFILE
		SCAN_DEPTH=0.00
		SCAN_OFFAXIS_INPLANE=100.00
		SCAN_ANGLE=0.00
		SCAN_DIAGONAL=NOT_DIAGONAL
		MEAS_PRESET=TIME_PRESET
		MEAS_TIME=10.000
		MEAS_UNIT=GY
		PRESSURE=1013.25
		TEMPERATURE=20.00
		NORM_TEMPERATURE=20.00
		CORRECTION_FACTOR=1.0000
		CORRECTIONS=AIR_DENSITY_CORR;
		BEGIN_DATA
			-60.00		9.0515E-03
			-30.00		13.066E-03
			30.00		13.077E-03
			60.00		8.3445E-03
		END_DATA
	END_SCAN  6
	BEGIN_SCAN  7
		TASK_NAME=MODE_INTERVAL
		PROGRAM=BeamAdjust 1.2
		MEAS_DATE=07-Oct-2010 14:09:18
		LINAC=A4
		MODALITY=X
		INPLANE_AXIS_DIR=TARGET_GUN
		CROSSPLANE_AXIS_DIR=LEFT_RIGHT
		DEPTH_AXIS_DIR=UP_DOWN
		ENERGY=6.00
		SSD=950.00
		WEDGE=None
		FIELD_INPLANE=100.00
		FIELD_CROSSPLANE=100.00
		FIELD_TYPE=RECTANGULAR
		GANTRY=0.00
		GANTRY_UPRIGHT_POSITION=0
		GANTRY_ROTATION=CW
		COLL_ANGLE=90.00
		COLL_OFFSET_INPLANE=0.00
		COLL_OFFSET_CROSSPLANE=0.00
		SCAN_DEVICE=STARCHECK
		ELECTROMETER=2D_ARRAY_INTERFACE
		DETECTOR=STARCHECK
		SCAN_CURVETYPE=CROSSPLANE_PROFILE
		SCAN_DEPTH=0.00
		SCAN_OFFAXIS_INPLANE=130.00
		SCAN_ANGLE=0.00
		SCAN_DIAGONAL=NOT_DIAGONAL
		MEAS_PRESET=TIME_PRESET
		MEAS_TIME=10.000
		MEAS_UNIT=GY
		PRESSURE=1013.25
		TEMPERATURE=20.00
		NORM_TEMPERATURE=20.00
		CORRECTION_FACTOR=1.0000
		CORRECTIONS=AIR_DENSITY_CORR;
		BEGIN_DATA
			-130.00		1.7336E-03
			-80.00		3.4875E-03
			-40.00		6.7808E-03
			40.00		6.8143E-03
			80.00		3.7293E-03
			130.00		2.8488E-03
		END_DATA
	END_SCAN  7
	BEGIN_SCAN  8
		TASK_NAME=MODE_INTERVAL
		PROGRAM=BeamAdjust 1.2
		MEAS_DATE=07-Oct-2010 14:09:18
		LINAC=A4
		MODALITY=X
		INPLANE_AXIS_DIR=TARGET_GUN
		CROSSPLANE_AXIS_DIR=LEFT_RIGHT
		DEPTH_AXIS_DIR=UP_DOWN
		ENERGY=6.00
		SSD=950.00
		WEDGE=None
		FIELD_INPLANE=100.00
		FIELD_CROSSPLANE=100.00
		FIELD_TYPE=RECTANGULAR
		GANTRY=0.00
		GANTRY_UPRIGHT_POSITION=0
		GANTRY_ROTATION=CW
		COLL_ANGLE=90.00
		COLL_OFFSET_INPLANE=0.00
		COLL_OFFSET_CROSSPLANE=0.00
		SCAN_DEVICE=STARCHECK
		ELECTROMETER=2D_ARRAY_INTERFACE
		DETECTOR=STARCHECK
		SCAN_CURVETYPE=INPLANE_PROFILE
		SCAN_DEPTH=0.00
		SCAN_OFFAXIS_CROSSPLANE=-130.00
		SCAN_ANGLE=0.00
		SCAN_DIAGONAL=NOT_DIAGONAL
		MEAS_PRESET=TIME_PRESET
		MEAS_TIME=10.000
		MEAS_UNIT=GY
		PRESSURE=1013.25
		TEMPERATURE=20.00
		NORM_TEMPERATURE=20.00
		CORRECTION_FACTOR=1.0000
		CORRECTIONS=AIR_DENSITY_CORR;
		BEGIN_DATA
			-130.00		2.8075E-03
			-125.00		2.7021E-03
			-120.00		3.2549E-03
			-115.00		3.4811E-03
			-110.00		3.4815E-03
			-105.00		3.8167E-03
			-100.00		4.2830E-03
			-95.00		4.7719E-03
			-90.00		5.5126E-03
			-85.00		4.5184E-03
			-80.00		4.8216E-03
			-75.00		4.8304E-03
			-70.00		5.4397E-03
			-65.00		5.0656E-03
			-60.00		5.7036E-03
			-55.00		5.9200E-03
			-50.00		4.7340E-03
			-45.00		4.5676E-03
			-40.00		5.1220E-03
			-35.00		5.4588E-03
			-30.00		5.5872E-03
			-25.00		5.3270E-03
			-20.00		5.9372E-03
			-15.00		5.2836E-03
			-10.00		5.2980E-03
			-5.00		6.6594E-03
			0.00		5.5875E-03
			5.00		6.3879E-03
			10.00		5.8700E-03
			15.00		5.3935E-03
			20.00		6.0892E-03
			25.00		4.8350E-03
			30.00		5.8514E-03
			35.00		5.1395E-03
			40.00		4.8742E-03
			45.00		4.3976E-03
			50.00		5.5606E-03
			55.00		4.3293E-03
			60.00		4.3668E-03
			65.00		3.9705E-03
			70.00		3.5273E-03
			75.00		4.1011E-03
			80.00		3.2833E-03
			85.00		3.7613E-03
			90.00		2.9395E-03
			95.00		3.2862E-03
			100.00		2.8846E-03
			105.00		2.3590E-03
			110.00		2.4754E-03
			115.00		2.2623E-03
			120.00		2.9720E-03
			125.00		2.3702E-03
			130.00		1.7336E-03
		END_DATA
	END_SCAN  8
	BEGIN_SCAN  9
		TASK_NAME=MODE_INTERVAL
		PROGRAM=BeamAdjust 1.2
		MEAS_DATE=07-Oct-2010 14:09:18
		LINAC=A4
		MODALITY=X
		INPLANE_AXIS_DIR=TARGET_GUN
		CROSSPLANE_AXIS_DIR=LEFT_RIGHT
		DEPTH_AXIS_DIR=UP_DOWN
		ENERGY=6.00
		SSD=950.00
		WEDGE=None
		FIELD_INPLANE=100.00
		FIELD_CROSSPLANE=100.00
		FIELD_TYPE=RECTANGULAR
		GANTRY=0.00
		GANTRY_UPRIGHT_POSITION=0
		GANTRY_ROTATION=CW
		COLL_ANGLE=90.00
		COLL_OFFSET_INPLANE=0.00
		COLL_OFFSET_CROSSPLANE=0.00
		SCAN_DEVICE=STARCHECK
		ELECTROMETER=2D_ARRAY_INTERFACE
		DETECTOR=STARCHECK
		SCAN_CURVETYPE=INPLANE_PROFILE
		SCAN_DEPTH=0.00
		SCAN_OFFAXIS_CROSSPLANE=-100.00
		SCAN_ANGLE=0.00
		SCAN_DIAGONAL=NOT_DIAGONAL
		MEAS_PRESET=TIME_PRESET
		MEAS_TIME=10.000
		MEAS_UNIT=GY
		PRESSURE=1013.25
		TEMPERATURE=20.00
		NORM_TEMPERATURE=20.00
		CORRECTION_FACTOR=1.0000
		CORRECTIONS=AIR_DENSITY_CORR;
		BEGIN_DATA
			-60.00		8.9917E-03
			-30.00		10.861E-03
			30.00		9.9400E-03
			60.00		7.4320E-03
		END_DATA
	END_SCAN  9
	BEGIN_SCAN  10
		TASK_NAME=MODE_INTERVAL
		PROGRAM=BeamAdjust 1.2
		MEAS_DATE=07-Oct-2010 14:09:18
		LINAC=A4
		MODALITY=X
		INPLANE_AXIS_DIR=TARGET_GUN
		CROSSPLANE_AXIS_DIR=LEFT_RIGHT
		DEPTH_AXIS_DIR=UP_DOWN
		ENERGY=6.00
		SSD=950.00
		WEDGE=None
		FIELD_INPLANE=100.00
		FIELD_CROSSPLANE=100.00
		FIELD_TYPE=RECTANGULAR
		GANTRY=0.00
		GANTRY_UPRIGHT_POSITION=0
		GANTRY_ROTATION=CW
		COLL_ANGLE=90.00
		COLL_OFFSET_INPLANE=0.00
		COLL_OFFSET_CROSSPLANE=0.00
		SCAN_DEVICE=STARCHECK
		ELECTROMETER=2D_ARRAY_INTERFACE
		DETECTOR=STARCHECK
		SCAN_CURVETYPE=INPLANE_PROFILE
		SCAN_DEPTH=0.00
		SCAN_OFFAXIS_CROSSPLANE=-50.00
		SCAN_ANGLE=0.00
		SCAN_DIAGONAL=NOT_DIAGONAL
		MEAS_PRESET=TIME_PRESET
		MEAS_TIME=10.000
		MEAS_UNIT=GY
		PRESSURE=1013.25
		TEMPERATURE=20.00
		NORM_TEMPERATURE=20.00
		CORRECTION_FACTOR=1.0000
		CORRECTIONS=AIR_DENSITY_CORR;
		BEGIN_DATA
			-30.00		401.82E-03
			-15.00		397.72E-03
			15.00		385.46E-03
			30.00		371.62E-03
		END_DATA
	END_SCAN  10
	BEGIN_SCAN  11
		TASK_NAME=MODE_INTERVAL
		PROGRAM=BeamAdjust 1.2
		MEAS_DATE=07-Oct-2010 14:09:18
		LINAC=A4
		MODALITY=X
		INPLANE_AXIS_DIR=TARGET_GUN
		CROSSPLANE_AXIS_DIR=LEFT_RIGHT
		DEPTH_AXIS_DIR=UP_DOWN
		ENERGY=6.00
		SSD=950.00
		WEDGE=None
		FIELD_INPLANE=100.00
		FIELD_CROSSPLANE=100.00
		FIELD_TYPE=RECTANGULAR
		GANTRY=0.00
		GANTRY_UPRIGHT_POSITION=0
		GANTRY_ROTATION=CW
		COLL_ANGLE=90.00
		COLL_OFFSET_INPLANE=0.00
		COLL_OFFSET_CROSSPLANE=0.00
		SCAN_DEVICE=STARCHECK
		ELECTROMETER=2D_ARRAY_INTERFACE
		DETECTOR=STARCHECK
		SCAN_CURVETYPE=INPLANE_PROFILE
		SCAN_DEPTH=0.00
		SCAN_OFFAXIS_CROSSPLANE=0.00
		SCAN_ANGLE=0.00
		SCAN_DIAGONAL=NOT_DIAGONAL
		MEAS_PRESET=TIME_PRESET
		MEAS_TIME=10.000
		MEAS_UNIT=GY
		PRESSURE=1013.25
		TEMPERATURE=20.00
		NORM_TEMPERATURE=20.00
		CORRECTION_FACTOR=1.0000
		CORRECTIONS=AIR_DENSITY_CORR;
		BEGIN_DATA
			-126.00		10.345E-03
			-123.00		10.411E-03
			-120.00		11.572E-03
			-117.00		12.670E-03
			-114.00		13.559E-03
			-111.00		14.452E-03
			-108.00		15.375E-03
			-105.00		16.630E-03
			-102.00		18.547E-03
			-99.00		19.045E-03
			-96.00		21.016E-03
			-93.00		23.447E-03
			-90.00		25.316E-03
			-87.00		27.788E-03
			-84.00		30.214E-03
			-81.00		33.136E-03
			-78.00		36.648E-03
			-75.00		40.281E-03
			-72.00		45.219E-03
			-69.00		51.596E-03
			-66.00		61.767E-03
			-63.00		79.127E-03
			-60.00		124.60E-03
			-57.00		278.27E-03
			-54.00		540.03E-03
			-51.00		619.85E-03
			-48.00		644.49E-03
			-45.00		654.16E-03
			-42.00		659.04E-03
			-39.00		662.11E-03
			-36.00		664.37E-03
			-33.00		665.63E-03
			-30.00		668.01E-03
			-27.00		668.44E-03
			-24.00		668.73E-03
			-21.00		668.92E-03
			-18.00		674.39E-03
			-15.00		669.95E-03
			-12.00		669.34E-03
			-9.00		669.10E-03
			-6.00		668.01E-03
			0.00		670.35E-03
			6.00		673.35E-03
			9.00		668.92E-03
			12.00		667.35E-03
			15.00		666.37E-03
			18.00		663.00E-03
			21.00		662.31E-03
			24.00		657.61E-03
			27.00		657.50E-03
			30.00		650.96E-03
			33.00		644.77E-03
			36.00		634.32E-03
			39.00		598.99E-03
			42.00		462.79E-03
			45.00		205.88E-03
			48.00		104.77E-03
			51.00		71.921E-03
			54.00		56.906E-03
			57.00		49.017E-03
			60.00		43.756E-03
			63.00		38.681E-03
			66.00		35.338E-03
			69.00		31.841E-03
			72.00		29.013E-03
			75.00		26.541E-03
			78.00		23.349E-03
			81.00		22.306E-03
			84.00		20.602E-03
			87.00		19.187E-03
			90.00		18.577E-03
			93.00		16.350E-03
			96.00		15.612E-03
			99.00		14.035E-03
			102.00		12.733E-03
			105.00		11.758E-03
			108.00		11.840E-03
			111.00		10.509E-03
			114.00		10.099E-03
			117.00		9.1495E-03
			120.00		8.8903E-03
			123.00		8.3204E-03
			126.00		7.6046E-03
		END_DATA
	END_SCAN  11
	BEGIN_SCAN  12
		TASK_NAME=MODE_INTERVAL
		PROGRAM=BeamAdjust 1.2
		MEAS_DATE=07-Oct-2010 14:09:18
		LINAC=A4
		MODALITY=X
		INPLANE_AXIS_DIR=TARGET_GUN
		CROSSPLANE_AXIS_DIR=LEFT_RIGHT
		DEPTH_AXIS_DIR=UP_DOWN
		ENERGY=6.00
		SSD=950.00
		WEDGE=None
		FIELD_INPLANE=100.00
		FIELD_CROSSPLANE=100.00
		FIELD_TYPE=RECTANGULAR
		GANTRY=0.00
		GANTRY_UPRIGHT_POSITION=0
		GANTRY_ROTATION=CW
		COLL_ANGLE=90.00
		COLL_OFFSET_INPLANE=0.00
		COLL_OFFSET_CROSSPLANE=0.00
		SCAN_DEVICE=STARCHECK
		ELECTROMETER=2D_ARRAY_INTERFACE
		DETECTOR=STARCHECK
		SCAN_CURVETYPE=INPLANE_PROFILE
		SCAN_DEPTH=0.00
		SCAN_OFFAXIS_CROSSPLANE=50.00
		SCAN_ANGLE=0.00
		SCAN_DIAGONAL=NOT_DIAGONAL
		MEAS_PRESET=TIME_PRESET
		MEAS_TIME=10.000
		MEAS_UNIT=GY
		PRESSURE=1013.25
		TEMPERATURE=20.00
		NORM_TEMPERATURE=20.00
		CORRECTION_FACTOR=1.0000
		CORRECTIONS=AIR_DENSITY_CORR;
		BEGIN_DATA
			-30.00		326.10E-03
			-15.00		333.93E-03
			15.00		339.86E-03
			30.00		337.61E-03
		END_DATA
	END_SCAN  12
	BEGIN_SCAN  13
		TASK_NAME=MODE_INTERVAL
		PROGRAM=BeamAdjust 1.2
		MEAS_DATE=07-Oct-2010 14:09:18
		LINAC=A4
		MODALITY=X
		INPLANE_AXIS_DIR=TARGET_GUN
		CROSSPLANE_AXIS_DIR=LEFT_RIGHT
		DEPTH_AXIS_DIR=UP_DOWN
		ENERGY=6.00
		SSD=950.00
		WEDGE=None
		FIELD_INPLANE=100.00
		FIELD_CROSSPLANE=100.00
		FIELD_TYPE=RECTANGULAR
		GANTRY=0.00
		GANTRY_UPRIGHT_POSITION=0
		GANTRY_ROTATION=CW
		COLL_ANGLE=90.00
		COLL_OFFSET_INPLANE=0.00
		COLL_OFFSET_CROSSPLANE=0.00
		SCAN_DEVICE=STARCHECK
		ELECTROMETER=2D_ARRAY_INTERFACE
		DETECTOR=STARCHECK
		SCAN_CURVETYPE=INPLANE_PROFILE
		SCAN_DEPTH=0.00
		SCAN_OFFAXIS_CROSSPLANE=100.00
		SCAN_ANGLE=0.00
		SCAN_DIAGONAL=NOT_DIAGONAL
		MEAS_PRESET=TIME_PRESET
		MEAS_TIME=10.000
		MEAS_UNIT=GY
		PRESSURE=1013.25
		TEMPERATURE=20.00
		NORM_TEMPERATURE=20.00
		CORRECTION_FACTOR=1.0000
		CORRECTIONS=AIR_DENSITY_CORR;
		BEGIN_DATA
			-60.00		8.5361E-03
			-30.00		10.595E-03
			30.00		10.203E-03
			60.00		6.9577E-03
		END_DATA
	END_SCAN  13
	BEGIN_SCAN  14
		TASK_NAME=MODE_INTERVAL
		PROGRAM=BeamAdjust 1.2
		MEAS_DATE=07-Oct-2010 14:09:18
		LINAC=A4
		MODALITY=X
		INPLANE_AXIS_DIR=TARGET_GUN
		CROSSPLANE_AXIS_DIR=LEFT_RIGHT
		DEPTH_AXIS_DIR=UP_DOWN
		ENERGY=6.00
		SSD=950.00
		WEDGE=None
		FIELD_INPLANE=100.00
		FIELD_CROSSPLANE=100.00
		FIELD_TYPE=RECTANGULAR
		GANTRY=0.00
		GANTRY_UPRIGHT_POSITION=0
		GANTRY_ROTATION=CW
		COLL_ANGLE=90.00
		COLL_OFFSET_INPLANE=0.00
		COLL_OFFSET_CROSSPLANE=0.00
		SCAN_DEVICE=STARCHECK
		ELECTROMETER=2D_ARRAY_INTERFACE
		DETECTOR=STARCHECK
		SCAN_CURVETYPE=INPLANE_PROFILE
		SCAN_DEPTH=0.00
		SCAN_OFFAXIS_CROSSPLANE=130.00
		SCAN_ANGLE=0.00
		SCAN_DIAGONAL=NOT_DIAGONAL
		MEAS_PRESET=TIME_PRESET
		MEAS_TIME=10.000
		MEAS_UNIT=GY
		PRESSURE=1013.25
		TEMPERATURE=20.00
		NORM_TEMPERATURE=20.00
		CORRECTION_FACTOR=1.0000
		CORRECTIONS=AIR_DENSITY_CORR;
		BEGIN_DATA
			-130.00		2.3788E-03
			-125.00		2.4751E-03
			-120.00		2.8302E-03
			-115.00		2.6900E-03
			-110.00		2.9026E-03
			-105.00		2.7759E-03
			-100.00		3.3106E-03
			-95.00		3.2439E-03
			-90.00		2.8568E-03
			-85.00		3.9965E-03
			-80.00		3.7595E-03
			-75.00		4.1228E-03
			-70.00		4.2698E-03
			-65.00		4.0823E-03
			-60.00		5.0069E-03
			-55.00		4.3074E-03
			-50.00		4.7508E-03
			-45.00		4.6131E-03
			-40.00		5.4239E-03
			-35.00		5.1220E-03
			-30.00		5.7002E-03
			-25.00		4.8659E-03
			-20.00		5.4905E-03
			-15.00		5.3310E-03
			-10.00		5.2730E-03
			-5.00		6.3202E-03
			0.00		6.0317E-03
			5.00		5.5260E-03
			10.00		5.7120E-03
			15.00		5.1292E-03
			20.00		5.5037E-03
			25.00		5.2448E-03
			30.00		4.8574E-03
			35.00		4.9992E-03
			40.00		5.3944E-03
			45.00		4.7641E-03
			50.00		4.8605E-03
			55.00		4.7239E-03
			60.00		4.8245E-03
			65.00		3.9404E-03
			70.00		3.6886E-03
			75.00		4.1064E-03
			80.00		3.7286E-03
			85.00		3.8125E-03
			90.00		3.3193E-03
			95.00		2.9778E-03
			100.00		3.6447E-03
			105.00		2.3433E-03
			110.00		2.5807E-03
			115.00		2.2113E-03
			120.00		2.7905E-03
			125.00		2.1046E-03
			130.00		2.8488E-03
		END_DATA
	END_SCAN  14
	BEGIN_SCAN  15
		TASK_NAME=MODE_INTERVAL
		PROGRAM=BeamAdjust 1.2
		MEAS_DATE=07-Oct-2010 14:09:18
		LINAC=A4
		MODALITY=X
		INPLANE_AXIS_DIR=TARGET_GUN
		CROSSPLANE_AXIS_DIR=LEFT_RIGHT
		DEPTH_AXIS_DIR=UP_DOWN
		ENERGY=6.00
		SSD=950.00
		WEDGE=None
		FIELD_INPLANE=100.00
		FIELD_CROSSPLANE=100.00
		FIELD_TYPE=RECTANGULAR
		GANTRY=0.00
		GANTRY_UPRIGHT_POSITION=0
		GANTRY_ROTATION=CW
		COLL_ANGLE=90.00
		COLL_OFFSET_INPLANE=0.00
		COLL_OFFSET_CROSSPLANE=0.00
		SCAN_DEVICE=STARCHECK
		ELECTROMETER=2D_ARRAY_INTERFACE
		DETECTOR=STARCHECK
		SCAN_CURVETYPE=INPLANE_PROFILE
		SCAN_DEPTH=0.00
		SCAN_OFFAXIS_CROSSPLANE=0.00
		SCAN_ANGLE=0.00
		SCAN_DIAGONAL=FIRST_DIAGONAL
		MEAS_PRESET=TIME_PRESET
		MEAS_TIME=10.000
		MEAS_UNIT=GY
		PRESSURE=1013.25
		TEMPERATURE=20.00
		NORM_TEMPERATURE=20.00
		CORRECTION_FACTOR=1.0000
		CORRECTIONS=AIR_DENSITY_CORR;
		BEGIN_DATA
			-172.40		3.1916E-03
			-169.40		3.2722E-03
			-166.40		4.2033E-03
			-163.40		3.8196E-03
			-160.40		4.2727E-03
			-157.40		4.2688E-03
			-154.40		4.2481E-03
			-151.40		4.5467E-03
			-148.40		4.9183E-03
			-145.40		5.6141E-03
			-142.40		6.0129E-03
			-139.40		6.4937E-03
			-136.40		6.4876E-03
			-133.40		7.4589E-03
			-130.40		8.3894E-03
			-127.40		8.3066E-03
			-124.40		8.6104E-03
			-121.40		9.8185E-03
			-118.40		10.700E-03
			-115.40		11.755E-03
			-112.40		12.557E-03
			-109.40		13.729E-03
			-106.40		15.363E-03
			-103.40		15.978E-03
			-100.40		17.574E-03
			-97.40		20.193E-03
			-94.40		22.272E-03
			-91.40		25.136E-03
			-88.40		29.355E-03
			-85.40		33.114E-03
			-82.40		40.466E-03
			-79.40		54.190E-03
			-76.40		95.801E-03
			-73.40		224.44E-03
			-70.40		389.21E-03
			-67.40		528.70E-03
			-64.40		598.95E-03
			-61.40		624.86E-03
			-58.40		636.96E-03
			-55.40		645.08E-03
			-52.40		650.06E-03
			-49.40		653.90E-03
			-46.40		656.12E-03
			-43.40		657.49E-03
			-40.40		659.84E-03
			-37.40		664.27E-03
			-34.40		663.21E-03
			-31.40		664.78E-03
			-28.40		663.08E-03
			-25.40		666.16E-03
			-22.40		667.72E-03
			-19.40		668.34E-03
			-16.40		670.19E-03
			-13.40		671.25E-03
			0.00		670.35E-03
			13.40		670.09E-03
			16.40		666.48E-03
			19.40		666.71E-03
			22.40		665.32E-03
			25.40		663.58E-03
			28.40		662.12E-03
			31.40		658.87E-03
			34.40		655.12E-03
			37.40		656.47E-03
			40.40		652.80E-03
			43.40		647.78E-03
			46.40		643.21E-03
			49.40		631.36E-03
			52.40		612.92E-03
			55.40		560.14E-03
			58.40		453.93E-03
			61.40		302.03E-03
			64.40		163.01E-03
			67.40		82.851E-03
			70.40		52.082E-03
			73.40		39.715E-03
			76.40		33.651E-03
			79.40		28.998E-03
			82.40		25.807E-03
			85.40		22.713E-03
			88.40		20.953E-03
			91.40		18.492E-03
			94.40		16.864E-03
			97.40		15.484E-03
			100.40		13.835E-03
			103.40		13.925E-03
			106.40		11.940E-03
			109.40		11.037E-03
			112.40		9.4944E-03
			115.40		9.0028E-03
			118.40		8.0399E-03
			121.40		7.6507E-03
			124.40		7.3289E-03
			127.40		6.7817E-03
			130.40		6.5862E-03
			133.40		5.6197E-03
			136.40		4.7043E-03
			139.40		4.6115E-03
			142.40		4.3749E-03
			145.40		4.6970E-03
			148.40		4.0259E-03
			151.40		3.7919E-03
			154.40		3.3144E-03
			157.40		3.7850E-03
			160.40		2.2516E-03
			163.40		2.5172E-03
			166.40		2.5598E-03
			169.40		2.5982E-03
			172.40		2.6041E-03
		END_DATA
	END_SCAN  15
	BEGIN_SCAN  16
		TASK_NAME=MODE_INTERVAL
		PROGRAM=BeamAdjust 1.2
		MEAS_DATE=07-Oct-2010 14:09:18
		LINAC=A4
		MODALITY=X
		INPLANE_AXIS_DIR=GUN_TARGET
		CROSSPLANE_AXIS_DIR=LEFT_RIGHT
		DEPTH_AXIS_DIR=UP_DOWN
		ENERGY=6.00
		SSD=950.00
		WEDGE=None
		FIELD_INPLANE=100.00
		FIELD_CROSSPLANE=100.00
		FIELD_TYPE=RECTANGULAR
		GANTRY=0.00
		GANTRY_UPRIGHT_POSITION=0
		GANTRY_ROTATION=CW
		COLL_ANGLE=90.00
		COLL_OFFSET_INPLANE=0.00
		COLL_OFFSET_CROSSPLANE=0.00
		SCAN_DEVICE=STARCHECK
		ELECTROMETER=2D_ARRAY_INTERFACE
		DETECTOR=STARCHECK
		SCAN_CURVETYPE=INPLANE_PROFILE
		SCAN_DEPTH=0.00
		SCAN_OFFAXIS_CROSSPLANE=0.00
		SCAN_ANGLE=0.00
		SCAN_DIAGONAL=SECOND_DIAGONAL
		MEAS_PRESET=TIME_PRESET
		MEAS_TIME=10.000
		MEAS_UNIT=GY
		PRESSURE=1013.25
		TEMPERATURE=20.00
		NORM_TEMPERATURE=20.00
		CORRECTION_FACTOR=1.0000
		CORRECTIONS=AIR_DENSITY_CORR;
		BEGIN_DATA
			-172.40		3.1135E-03
			-169.40		3.1321E-03
			-166.40		3.2154E-03
			-163.40		3.1635E-03
			-160.40		3.6416E-03
			-157.40		3.9257E-03
			-154.40		4.2257E-03
			-151.40		4.5155E-03
			-148.40		4.7419E-03
			-145.40		5.1280E-03
			-142.40		5.6065E-03
			-139.40		5.7887E-03
			-136.40		6.4136E-03
			-133.40		7.1040E-03
			-130.40		7.6067E-03
			-127.40		8.2396E-03
			-124.40		9.0887E-03
			-121.40		9.6991E-03
			-118.40		10.302E-03
			-115.40		10.763E-03
			-112.40		11.650E-03
			-109.40		13.382E-03
			-106.40		14.450E-03
			-103.40		16.074E-03
			-100.40		17.825E-03
			-97.40		19.721E-03
			-94.40		21.554E-03
			-91.40		24.010E-03
			-88.40		26.529E-03
			-85.40		30.439E-03
			-82.40		36.945E-03
			-79.40		47.827E-03
			-76.40		72.970E-03
			-73.40		160.77E-03
			-70.40		317.01E-03
			-67.40		475.71E-03
			-64.40		580.85E-03
			-61.40		621.46E-03
			-58.40		639.66E-03
			-55.40		647.12E-03
			-52.40		656.76E-03
			-49.40		659.59E-03
			-46.40		661.71E-03
			-43.40		664.41E-03
			-40.40		665.60E-03
			-37.40		668.21E-03
			-34.40		667.28E-03
			-31.40		667.61E-03
			-28.40		669.27E-03
			-25.40		668.08E-03
			-22.40		666.65E-03
			-19.40		670.60E-03
			-16.40		671.53E-03
			-13.40		673.22E-03
			0.00		670.35E-03
			13.40		669.45E-03
			16.40		666.60E-03
			19.40		664.25E-03
			22.40		661.59E-03
			25.40		661.29E-03
			28.40		659.36E-03
			31.40		656.80E-03
			34.40		653.60E-03
			37.40		651.96E-03
			40.40		649.60E-03
			43.40		646.11E-03
			46.40		641.51E-03
			49.40		632.29E-03
			52.40		612.13E-03
			55.40		569.61E-03
			58.40		474.58E-03
			61.40		329.01E-03
			64.40		181.10E-03
			67.40		90.068E-03
			70.40		54.135E-03
			73.40		40.670E-03
			76.40		33.278E-03
			79.40		29.088E-03
			82.40		26.415E-03
			85.40		23.773E-03
			88.40		21.405E-03
			91.40		19.277E-03
			94.40		17.499E-03
			97.40		16.506E-03
			100.40		13.833E-03
			103.40		12.658E-03
			106.40		12.036E-03
			109.40		10.965E-03
			112.40		10.074E-03
			115.40		9.5050E-03
			118.40		8.4690E-03
			121.40		8.0031E-03
			124.40		7.2898E-03
			127.40		6.9317E-03
			130.40		6.8202E-03
			133.40		6.1074E-03
			136.40		5.4958E-03
			139.40		6.1092E-03
			142.40		5.4353E-03
			145.40		4.8205E-03
			148.40		4.5840E-03
			151.40		3.8317E-03
			154.40		4.0679E-03
			157.40		3.7782E-03
			160.40		3.4639E-03
			163.40		3.5956E-03
			166.40		3.3281E-03
			169.40		2.7244E-03
			172.40		2.3012E-03
		END_DATA
	END_SCAN  16
END_SCAN_DATA
