BEGIN_SCAN_DATA
	FORMAT=CC-Export V1.9                  
	FILE_CREATION_DATE=07-Oct-2010 14:08:35
	LAST_MODIFIED=07-Oct-2010 14:08:35
	BEGIN_SCAN  1
		TASK_NAME=MODE_INTERVAL
		PROGRAM=BeamAdjust 1.2
		MEAS_DATE=07-Oct-2010 14:08:35
		LINAC=A4
		MODALITY=X
		INPLANE_AXIS_DIR=TARGET_GUN
		CROSSPLANE_AXIS_DIR=LEFT_RIGHT
		DEPTH_AXIS_DIR=UP_DOWN
		ENERGY=6.00
		SSD=950.00
		WEDGE=None
		FIELD_INPLANE=100.00
		FIELD_CROSSPLANE=100.00
		FIELD_TYPE=RECTANGULAR
		GANTRY=0.00
		GANTRY_UPRIGHT_POSITION=0
		GANTRY_ROTATION=CW
		COLL_ANGLE=90.00
		COLL_OFFSET_INPLANE=0.00
		COLL_OFFSET_CROSSPLANE=0.00
		SCAN_DEVICE=STARCHECK
		ELECTROMETER=2D_ARRAY_INTERFACE
		DETECTOR=STARCHECK
		SCAN_CURVETYPE=CROSSPLANE_PROFILE
		SCAN_DEPTH=0.00
		SCAN_OFFAXIS_INPLANE=-130.00
		SCAN_ANGLE=0.00
		SCAN_DIAGONAL=NOT_DIAGONAL
		MEAS_PRESET=TIME_PRESET
		MEAS_TIME=10.000
		MEAS_UNIT=GY
		PRESSURE=1013.25
		TEMPERATURE=20.00
		NORM_TEMPERATURE=20.00
		CORRECTION_FACTOR=1.0000
		CORRECTIONS=AIR_DENSITY_CORR;
		BEGIN_DATA
			-130.00		2.9055E-03
			-80.00		4.5018E-03
			-40.00		7.9534E-03
			40.00		7.4427E-03
			80.00		4.1783E-03
			130.00		1.9135E-03
		END_DATA
	END_SCAN  1
	BEGIN_SCAN  2
		TASK_NAME=MODE_INTERVAL
		PROGRAM=BeamAdjust 1.2
		MEAS_DATE=07-Oct-2010 14:08:35
		LINAC=A4
		MODALITY=X
		INPLANE_AXIS_DIR=TARGET_GUN
		CROSSPLANE_AXIS_DIR=LEFT_RIGHT
		DEPTH_AXIS_DIR=UP_DOWN
		ENERGY=6.00
		SSD=950.00
		WEDGE=None
		FIELD_INPLANE=100.00
		FIELD_CROSSPLANE=100.00
		FIELD_TYPE=RECTANGULAR
		GANTRY=0.00
		GANTRY_UPRIGHT_POSITION=0
		GANTRY_ROTATION=CW
		COLL_ANGLE=90.00
		COLL_OFFSET_INPLANE=0.00
		COLL_OFFSET_CROSSPLANE=0.00
		SCAN_DEVICE=STARCHECK
		ELECTROMETER=2D_ARRAY_INTERFACE
		DETECTOR=STARCHECK
		SCAN_CURVETYPE=CROSSPLANE_PROFILE
		SCAN_DEPTH=0.00
		SCAN_OFFAXIS_INPLANE=-100.00
		SCAN_ANGLE=0.00
		SCAN_DIAGONAL=NOT_DIAGONAL
		MEAS_PRESET=TIME_PRESET
		MEAS_TIME=10.000
		MEAS_UNIT=GY
		PRESSURE=1013.25
		TEMPERATURE=20.00
		NORM_TEMPERATURE=20.00
		CORRECTION_FACTOR=1.0000
		CORRECTIONS=AIR_DENSITY_CORR;
		BEGIN_DATA
			-60.00		11.895E-03
			-30.00		16.544E-03
			30.00		17.265E-03
			60.00		11.430E-03
		END_DATA
	END_SCAN  2
	BEGIN_SCAN  3
		TASK_NAME=MODE_INTERVAL
		PROGRAM=BeamAdjust 1.2
		MEAS_DATE=07-Oct-2010 14:08:35
		LINAC=A4
		MODALITY=X
		INPLANE_AXIS_DIR=TARGET_GUN
		CROSSPLANE_AXIS_DIR=LEFT_RIGHT
		DEPTH_AXIS_DIR=UP_DOWN
		ENERGY=6.00
		SSD=950.00
		WEDGE=None
		FIELD_INPLANE=100.00
		FIELD_CROSSPLANE=100.00
		FIELD_TYPE=RECTANGULAR
		GANTRY=0.00
		GANTRY_UPRIGHT_POSITION=0
		GANTRY_ROTATION=CW
		COLL_ANGLE=90.00
		COLL_OFFSET_INPLANE=0.00
		COLL_OFFSET_CROSSPLANE=0.00
		SCAN_DEVICE=STARCHECK
		ELECTROMETER=2D_ARRAY_INTERFACE
		DETECTOR=STARCHECK
		SCAN_CURVETYPE=CROSSPLANE_PROFILE
		SCAN_DEPTH=0.00
		SCAN_OFFAXIS_INPLANE=-50.00
		SCAN_ANGLE=0.00
		SCAN_DIAGONAL=NOT_DIAGONAL
		MEAS_PRESET=TIME_PRESET
		MEAS_TIME=10.000
		MEAS_UNIT=GY
		PRESSURE=1013.25
		TEMPERATURE=20.00
		NORM_TEMPERATURE=20.00
		CORRECTION_FACTOR=1.0000
		CORRECTIONS=AIR_DENSITY_CORR;
		BEGIN_DATA
			-30.00		637.49E-03
			-15.00		638.58E-03
			15.00		644.38E-03
			30.00		640.67E-03
		END_DATA
	END_SCAN  3
	BEGIN_SCAN  4
		TASK_NAME=MODE_INTERVAL
		PROGRAM=BeamAdjust 1.2
		MEAS_DATE=07-Oct-2010 14:08:35
		LINAC=A4
		MODALITY=X
		INPLANE_AXIS_DIR=TARGET_GUN
		CROSSPLANE_AXIS_DIR=LEFT_RIGHT
		DEPTH_AXIS_DIR=UP_DOWN
		ENERGY=6.00
		SSD=950.00
		WEDGE=None
		FIELD_INPLANE=100.00
		FIELD_CROSSPLANE=100.00
		FIELD_TYPE=RECTANGULAR
		GANTRY=0.00
		GANTRY_UPRIGHT_POSITION=0
		GANTRY_ROTATION=CW
		COLL_ANGLE=90.00
		COLL_OFFSET_INPLANE=0.00
		COLL_OFFSET_CROSSPLANE=0.00
		SCAN_DEVICE=STARCHECK
		ELECTROMETER=2D_ARRAY_INTERFACE
		DETECTOR=STARCHECK
		SCAN_CURVETYPE=CROSSPLANE_PROFILE
		SCAN_DEPTH=0.00
		SCAN_OFFAXIS_INPLANE=0.00
		SCAN_ANGLE=0.00
		SCAN_DIAGONAL=NOT_DIAGONAL
		MEAS_PRESET=TIME_PRESET
		MEAS_TIME=10.000
		MEAS_UNIT=GY
		PRESSURE=1013.25
		TEMPERATURE=20.00
		NORM_TEMPERATURE=20.00
		CORRECTION_FACTOR=1.0000
		CORRECTIONS=AIR_DENSITY_CORR;
		BEGIN_DATA
			-126.00		6.5663E-03
			-123.00		7.2755E-03
			-120.00		7.7277E-03
			-117.00		8.3510E-03
			-114.00		8.7302E-03
			-111.00		9.2544E-03
			-108.00		10.004E-03
			-105.00		10.811E-03
			-102.00		11.588E-03
			-99.00		12.652E-03
			-96.00		13.684E-03
			-93.00		15.611E-03
			-90.00		16.380E-03
			-87.00		17.724E-03
			-84.00		20.041E-03
			-81.00		21.511E-03
			-78.00		23.824E-03
			-75.00		26.695E-03
			-72.00		29.642E-03
			-69.00		33.916E-03
			-66.00		38.967E-03
			-63.00		44.989E-03
			-60.00		54.701E-03
			-57.00		72.414E-03
			-54.00		114.62E-03
			-51.00		294.12E-03
			-48.00		553.07E-03
			-45.00		613.67E-03
			-42.00		632.71E-03
			-39.00		645.04E-03
			-36.00		651.01E-03
			-33.00		651.47E-03
			-30.00		653.23E-03
			-27.00		655.79E-03
			-24.00		658.06E-03
			-21.00		657.63E-03
			-18.00		662.99E-03
			-15.00		663.09E-03
			-12.00		663.29E-03
			-9.00		666.82E-03
			-6.00		666.55E-03
			0.00		666.45E-03
			6.00		668.22E-03
			9.00		666.88E-03
			12.00		663.78E-03
			15.00		662.54E-03
			18.00		662.45E-03
			21.00		660.39E-03
			24.00		657.14E-03
			27.00		660.89E-03
			30.00		659.21E-03
			33.00		656.98E-03
			36.00		653.50E-03
			39.00		647.67E-03
			42.00		636.64E-03
			45.00		611.11E-03
			48.00		519.88E-03
			51.00		227.43E-03
			54.00		100.33E-03
			57.00		67.384E-03
			60.00		52.413E-03
			63.00		43.456E-03
			66.00		37.300E-03
			69.00		32.393E-03
			72.00		29.190E-03
			75.00		26.080E-03
			78.00		23.100E-03
			81.00		21.240E-03
			84.00		19.653E-03
			87.00		17.289E-03
			90.00		16.062E-03
			93.00		14.884E-03
			96.00		12.956E-03
			99.00		12.332E-03
			102.00		11.474E-03
			105.00		10.554E-03
			108.00		10.321E-03
			111.00		8.5089E-03
			114.00		8.3838E-03
			117.00		7.7670E-03
			120.00		7.1001E-03
			123.00		7.2169E-03
			126.00		7.0146E-03
		END_DATA
	END_SCAN  4
	BEGIN_SCAN  5
		TASK_NAME=MODE_INTERVAL
		PROGRAM=BeamAdjust 1.2
		MEAS_DATE=07-Oct-2010 14:08:35
		LINAC=A4
		MODALITY=X
		INPLANE_AXIS_DIR=TARGET_GUN
		CROSSPLANE_AXIS_DIR=LEFT_RIGHT
		DEPTH_AXIS_DIR=UP_DOWN
		ENERGY=6.00
		SSD=950.00
		WEDGE=None
		FIELD_INPLANE=100.00
		FIELD_CROSSPLANE=100.00
		FIELD_TYPE=RECTANGULAR
		GANTRY=0.00
		GANTRY_UPRIGHT_POSITION=0
		GANTRY_ROTATION=CW
		COLL_ANGLE=90.00
		COLL_OFFSET_INPLANE=0.00
		COLL_OFFSET_CROSSPLANE=0.00
		SCAN_DEVICE=STARCHECK
		ELECTROMETER=2D_ARRAY_INTERFACE
		DETECTOR=STARCHECK
		SCAN_CURVETYPE=CROSSPLANE_PROFILE
		SCAN_DEPTH=0.00
		SCAN_OFFAXIS_INPLANE=50.00
		SCAN_ANGLE=0.00
		SCAN_DIAGONAL=NOT_DIAGONAL
		MEAS_PRESET=TIME_PRESET
		MEAS_TIME=10.000
		MEAS_UNIT=GY
		PRESSURE=1013.25
		TEMPERATURE=20.00
		NORM_TEMPERATURE=20.00
		CORRECTION_FACTOR=1.0000
		CORRECTIONS=AIR_DENSITY_CORR;
		BEGIN_DATA
			-30.00		66.610E-03
			-15.00		70.172E-03
			15.00		67.224E-03
			30.00		65.295E-03
		END_DATA
	END_SCAN  5
	BEGIN_SCAN  6
		TASK_NAME=MODE_INTERVAL
		PROGRAM=BeamAdjust 1.2
		MEAS_DATE=07-Oct-2010 14:08:35
		LINAC=A4
		MODALITY=X
		INPLANE_AXIS_DIR=TARGET_GUN
		CROSSPLANE_AXIS_DIR=LEFT_RIGHT
		DEPTH_AXIS_DIR=UP_DOWN
		ENERGY=6.00
		SSD=950.00
		WEDGE=None
		FIELD_INPLANE=100.00
		FIELD_CROSSPLANE=100.00
		FIELD_TYPE=RECTANGULAR
		GANTRY=0.00
		GANTRY_UPRIGHT_POSITION=0
		GANTRY_ROTATION=CW
		COLL_ANGLE=90.00
		COLL_OFFSET_INPLANE=0.00
		COLL_OFFSET_CROSSPLANE=0.00
		SCAN_DEVICE=STARCHECK
		ELECTROMETER=2D_ARRAY_INTERFACE
		DETECTOR=STARCHECK
		SCAN_CURVETYPE=CROSSPLANE_PROFILE
		SCAN_DEPTH=0.00
		SCAN_OFFAXIS_INPLANE=100.00
		SCAN_ANGLE=0.00
		SCAN_DIAGONAL=NOT_DIAGONAL
		MEAS_PRESET=TIME_PRESET
		MEAS_TIME=10.000
		MEAS_UNIT=GY
		PRESSURE=1013.25
		TEMPERATURE=20.00
		NORM_TEMPERATURE=20.00
		CORRECTION_FACTOR=1.0000
		CORRECTIONS=AIR_DENSITY_CORR;
		BEGIN_DATA
			-60.00		9.2663E-03
			-30.00		13.102E-03
			30.00		12.881E-03
			60.00		7.9504E-03
		END_DATA
	END_SCAN  6
	BEGIN_SCAN  7
		TASK_NAME=MODE_INTERVAL
		PROGRAM=BeamAdjust 1.2
		MEAS_DATE=07-Oct-2010 14:08:35
		LINAC=A4
		MODALITY=X
		INPLANE_AXIS_DIR=TARGET_GUN
		CROSSPLANE_AXIS_DIR=LEFT_RIGHT
		DEPTH_AXIS_DIR=UP_DOWN
		ENERGY=6.00
		SSD=950.00
		WEDGE=None
		FIELD_INPLANE=100.00
		FIELD_CROSSPLANE=100.00
		FIELD_TYPE=RECTANGULAR
		GANTRY=0.00
		GANTRY_UPRIGHT_POSITION=0
		GANTRY_ROTATION=CW
		COLL_ANGLE=90.00
		COLL_OFFSET_INPLANE=0.00
		COLL_OFFSET_CROSSPLANE=0.00
		SCAN_DEVICE=STARCHECK
		ELECTROMETER=2D_ARRAY_INTERFACE
		DETECTOR=STARCHECK
		SCAN_CURVETYPE=CROSSPLANE_PROFILE
		SCAN_DEPTH=0.00
		SCAN_OFFAXIS_INPLANE=130.00
		SCAN_ANGLE=0.00
		SCAN_DIAGONAL=NOT_DIAGONAL
		MEAS_PRESET=TIME_PRESET
		MEAS_TIME=10.000
		MEAS_UNIT=GY
		PRESSURE=1013.25
		TEMPERATURE=20.00
		NORM_TEMPERATURE=20.00
		CORRECTION_FACTOR=1.0000
		CORRECTIONS=AIR_DENSITY_CORR;
		BEGIN_DATA
			-130.00		1.7825E-03
			-80.00		3.8816E-03
			-40.00		7.0278E-03
			40.00		6.9269E-03
			80.00		3.7888E-03
			130.00		1.8583E-03
		END_DATA
	END_SCAN  7
	BEGIN_SCAN  8
		TASK_NAME=MODE_INTERVAL
		PROGRAM=BeamAdjust 1.2
		MEAS_DATE=07-Oct-2010 14:08:35
		LINAC=A4
		MODALITY=X
		INPLANE_AXIS_DIR=TARGET_GUN
		CROSSPLANE_AXIS_DIR=LEFT_RIGHT
		DEPTH_AXIS_DIR=UP_DOWN
		ENERGY=6.00
		SSD=950.00
		WEDGE=None
		FIELD_INPLANE=100.00
		FIELD_CROSSPLANE=100.00
		FIELD_TYPE=RECTANGULAR
		GANTRY=0.00
		GANTRY_UPRIGHT_POSITION=0
		GANTRY_ROTATION=CW
		COLL_ANGLE=90.00
		COLL_OFFSET_INPLANE=0.00
		COLL_OFFSET_CROSSPLANE=0.00
		SCAN_DEVICE=STARCHECK
		ELECTROMETER=2D_ARRAY_INTERFACE
		DETECTOR=STARCHECK
		SCAN_CURVETYPE=INPLANE_PROFILE
		SCAN_DEPTH=0.00
		SCAN_OFFAXIS_CROSSPLANE=-130.00
		SCAN_ANGLE=0.00
		SCAN_DIAGONAL=NOT_DIAGONAL
		MEAS_PRESET=TIME_PRESET
		MEAS_TIME=10.000
		MEAS_UNIT=GY
		PRESSURE=1013.25
		TEMPERATURE=20.00
		NORM_TEMPERATURE=20.00
		CORRECTION_FACTOR=1.0000
		CORRECTIONS=AIR_DENSITY_CORR;
		BEGIN_DATA
			-130.00		2.9055E-03
			-125.00		2.8986E-03
			-120.00		3.1956E-03
			-115.00		3.5476E-03
			-110.00		3.7221E-03
			-105.00		3.9179E-03
			-100.00		4.5983E-03
			-95.00		4.7541E-03
			-90.00		4.7710E-03
			-85.00		4.8554E-03
			-80.00		4.5991E-03
			-75.00		5.2356E-03
			-70.00		5.2470E-03
			-65.00		5.2520E-03
			-60.00		5.4709E-03
			-55.00		5.8784E-03
			-50.00		4.6465E-03
			-45.00		4.6760E-03
			-40.00		4.9581E-03
			-35.00		5.5076E-03
			-30.00		5.8463E-03
			-25.00		5.4263E-03
			-20.00		5.2336E-03
			-15.00		5.1654E-03
			-10.00		5.5547E-03
			-5.00		6.5175E-03
			0.00		5.6670E-03
			5.00		6.4204E-03
			10.00		6.0256E-03
			15.00		5.4128E-03
			20.00		5.9368E-03
			25.00		4.9183E-03
			30.00		5.5393E-03
			35.00		5.2453E-03
			40.00		5.3178E-03
			45.00		4.4541E-03
			50.00		4.6754E-03
			55.00		4.5894E-03
			60.00		4.3728E-03
			65.00		3.8313E-03
			70.00		3.6640E-03
			75.00		3.8127E-03
			80.00		3.6384E-03
			85.00		3.2713E-03
			90.00		3.4386E-03
			95.00		3.0782E-03
			100.00		2.7651E-03
			105.00		2.3904E-03
			110.00		3.1375E-03
			115.00		2.0053E-03
			120.00		2.4145E-03
			125.00		2.1785E-03
			130.00		1.7825E-03
		END_DATA
	END_SCAN  8
	BEGIN_SCAN  9
		TASK_NAME=MODE_INTERVAL
		PROGRAM=BeamAdjust 1.2
		MEAS_DATE=07-Oct-2010 14:08:35
		LINAC=A4
		MODALITY=X
		INPLANE_AXIS_DIR=TARGET_GUN
		CROSSPLANE_AXIS_DIR=LEFT_RIGHT
		DEPTH_AXIS_DIR=UP_DOWN
		ENERGY=6.00
		SSD=950.00
		WEDGE=None
		FIELD_INPLANE=100.00
		FIELD_CROSSPLANE=100.00
		FIELD_TYPE=RECTANGULAR
		GANTRY=0.00
		GANTRY_UPRIGHT_POSITION=0
		GANTRY_ROTATION=CW
		COLL_ANGLE=90.00
		COLL_OFFSET_INPLANE=0.00
		COLL_OFFSET_CROSSPLANE=0.00
		SCAN_DEVICE=STARCHECK
		ELECTROMETER=2D_ARRAY_INTERFACE
		DETECTOR=STARCHECK
		SCAN_CURVETYPE=INPLANE_PROFILE
		SCAN_DEPTH=0.00
		SCAN_OFFAXIS_CROSSPLANE=-100.00
		SCAN_ANGLE=0.00
		SCAN_DIAGONAL=NOT_DIAGONAL
		MEAS_PRESET=TIME_PRESET
		MEAS_TIME=10.000
		MEAS_UNIT=GY
		PRESSURE=1013.25
		TEMPERATURE=20.00
		NORM_TEMPERATURE=20.00
		CORRECTION_FACTOR=1.0000
		CORRECTIONS=AIR_DENSITY_CORR;
		BEGIN_DATA
			-60.00		8.8732E-03
			-30.00		10.815E-03
			30.00		9.8342E-03
			60.00		7.4945E-03
		END_DATA
	END_SCAN  9
	BEGIN_SCAN  10
		TASK_NAME=MODE_INTERVAL
		PROGRAM=BeamAdjust 1.2
		MEAS_DATE=07-Oct-2010 14:08:35
		LINAC=A4
		MODALITY=X
		INPLANE_AXIS_DIR=TARGET_GUN
		CROSSPLANE_AXIS_DIR=LEFT_RIGHT
		DEPTH_AXIS_DIR=UP_DOWN
		ENERGY=6.00
		SSD=950.00
		WEDGE=None
		FIELD_INPLANE=100.00
		FIELD_CROSSPLANE=100.00
		FIELD_TYPE=RECTANGULAR
		GANTRY=0.00
		GANTRY_UPRIGHT_POSITION=0
		GANTRY_ROTATION=CW
		COLL_ANGLE=90.00
		COLL_OFFSET_INPLANE=0.00
		COLL_OFFSET_CROSSPLANE=0.00
		SCAN_DEVICE=STARCHECK
		ELECTROMETER=2D_ARRAY_INTERFACE
		DETECTOR=STARCHECK
		SCAN_CURVETYPE=INPLANE_PROFILE
		SCAN_DEPTH=0.00
		SCAN_OFFAXIS_CROSSPLANE=-50.00
		SCAN_ANGLE=0.00
		SCAN_DIAGONAL=NOT_DIAGONAL
		MEAS_PRESET=TIME_PRESET
		MEAS_TIME=10.000
		MEAS_UNIT=GY
		PRESSURE=1013.25
		TEMPERATURE=20.00
		NORM_TEMPERATURE=20.00
		CORRECTION_FACTOR=1.0000
		CORRECTIONS=AIR_DENSITY_CORR;
		BEGIN_DATA
			-30.00		400.48E-03
			-15.00		395.60E-03
			15.00		383.33E-03
			30.00		369.87E-03
		END_DATA
	END_SCAN  10
	BEGIN_SCAN  11
		TASK_NAME=MODE_INTERVAL
		PROGRAM=BeamAdjust 1.2
		MEAS_DATE=07-Oct-2010 14:08:35
		LINAC=A4
		MODALITY=X
		INPLANE_AXIS_DIR=TARGET_GUN
		CROSSPLANE_AXIS_DIR=LEFT_RIGHT
		DEPTH_AXIS_DIR=UP_DOWN
		ENERGY=6.00
		SSD=950.00
		WEDGE=None
		FIELD_INPLANE=100.00
		FIELD_CROSSPLANE=100.00
		FIELD_TYPE=RECTANGULAR
		GANTRY=0.00
		GANTRY_UPRIGHT_POSITION=0
		GANTRY_ROTATION=CW
		COLL_ANGLE=90.00
		COLL_OFFSET_INPLANE=0.00
		COLL_OFFSET_CROSSPLANE=0.00
		SCAN_DEVICE=STARCHECK
		ELECTROMETER=2D_ARRAY_INTERFACE
		DETECTOR=STARCHECK
		SCAN_CURVETYPE=INPLANE_PROFILE
		SCAN_DEPTH=0.00
		SCAN_OFFAXIS_CROSSPLANE=0.00
		SCAN_ANGLE=0.00
		SCAN_DIAGONAL=NOT_DIAGONAL
		MEAS_PRESET=TIME_PRESET
		MEAS_TIME=10.000
		MEAS_UNIT=GY
		PRESSURE=1013.25
		TEMPERATURE=20.00
		NORM_TEMPERATURE=20.00
		CORRECTION_FACTOR=1.0000
		CORRECTIONS=AIR_DENSITY_CORR;
		BEGIN_DATA
			-126.00		9.9875E-03
			-123.00		10.258E-03
			-120.00		11.614E-03
			-117.00		12.647E-03
			-114.00		13.607E-03
			-111.00		14.360E-03
			-108.00		15.593E-03
			-105.00		16.633E-03
			-102.00		18.656E-03
			-99.00		19.189E-03
			-96.00		21.053E-03
			-93.00		23.402E-03
			-90.00		25.810E-03
			-87.00		27.442E-03
			-84.00		29.996E-03
			-81.00		33.330E-03
			-78.00		36.616E-03
			-75.00		40.221E-03
			-72.00		45.486E-03
			-69.00		52.043E-03
			-66.00		62.463E-03
			-63.00		81.293E-03
			-60.00		130.96E-03
			-57.00		300.12E-03
			-54.00		550.90E-03
			-51.00		619.04E-03
			-48.00		642.03E-03
			-45.00		650.18E-03
			-42.00		654.97E-03
			-39.00		658.42E-03
			-36.00		660.34E-03
			-33.00		661.45E-03
			-30.00		664.14E-03
			-27.00		664.25E-03
			-24.00		664.86E-03
			-21.00		665.07E-03
			-18.00		670.05E-03
			-15.00		665.62E-03
			-12.00		665.03E-03
			-9.00		665.09E-03
			-6.00		663.97E-03
			0.00		666.45E-03
			6.00		668.56E-03
			9.00		664.96E-03
			12.00		663.30E-03
			15.00		662.18E-03
			18.00		659.18E-03
			21.00		658.15E-03
			24.00		653.26E-03
			27.00		653.69E-03
			30.00		646.26E-03
			33.00		640.44E-03
			36.00		629.28E-03
			39.00		590.64E-03
			42.00		437.56E-03
			45.00		190.58E-03
			48.00		99.429E-03
			51.00		69.875E-03
			54.00		55.873E-03
			57.00		48.256E-03
			60.00		43.026E-03
			63.00		37.983E-03
			66.00		35.098E-03
			69.00		31.568E-03
			72.00		28.564E-03
			75.00		26.374E-03
			78.00		23.263E-03
			81.00		22.030E-03
			84.00		21.025E-03
			87.00		18.947E-03
			90.00		17.855E-03
			93.00		16.467E-03
			96.00		15.171E-03
			99.00		14.070E-03
			102.00		12.857E-03
			105.00		11.709E-03
			108.00		11.889E-03
			111.00		10.383E-03
			114.00		10.188E-03
			117.00		9.3364E-03
			120.00		8.7706E-03
			123.00		8.2173E-03
			126.00		7.9870E-03
		END_DATA
	END_SCAN  11
	BEGIN_SCAN  12
		TASK_NAME=MODE_INTERVAL
		PROGRAM=BeamAdjust 1.2
		MEAS_DATE=07-Oct-2010 14:08:35
		LINAC=A4
		MODALITY=X
		INPLANE_AXIS_DIR=TARGET_GUN
		CROSSPLANE_AXIS_DIR=LEFT_RIGHT
		DEPTH_AXIS_DIR=UP_DOWN
		ENERGY=6.00
		SSD=950.00
		WEDGE=None
		FIELD_INPLANE=100.00
		FIELD_CROSSPLANE=100.00
		FIELD_TYPE=RECTANGULAR
		GANTRY=0.00
		GANTRY_UPRIGHT_POSITION=0
		GANTRY_ROTATION=CW
		COLL_ANGLE=90.00
		COLL_OFFSET_INPLANE=0.00
		COLL_OFFSET_CROSSPLANE=0.00
		SCAN_DEVICE=STARCHECK
		ELECTROMETER=2D_ARRAY_INTERFACE
		DETECTOR=STARCHECK
		SCAN_CURVETYPE=INPLANE_PROFILE
		SCAN_DEPTH=0.00
		SCAN_OFFAXIS_CROSSPLANE=50.00
		SCAN_ANGLE=0.00
		SCAN_DIAGONAL=NOT_DIAGONAL
		MEAS_PRESET=TIME_PRESET
		MEAS_TIME=10.000
		MEAS_UNIT=GY
		PRESSURE=1013.25
		TEMPERATURE=20.00
		NORM_TEMPERATURE=20.00
		CORRECTION_FACTOR=1.0000
		CORRECTIONS=AIR_DENSITY_CORR;
		BEGIN_DATA
			-30.00		323.04E-03
			-15.00		331.18E-03
			15.00		336.79E-03
			30.00		335.43E-03
		END_DATA
	END_SCAN  12
	BEGIN_SCAN  13
		TASK_NAME=MODE_INTERVAL
		PROGRAM=BeamAdjust 1.2
		MEAS_DATE=07-Oct-2010 14:08:35
		LINAC=A4
		MODALITY=X
		INPLANE_AXIS_DIR=TARGET_GUN
		CROSSPLANE_AXIS_DIR=LEFT_RIGHT
		DEPTH_AXIS_DIR=UP_DOWN
		ENERGY=6.00
		SSD=950.00
		WEDGE=None
		FIELD_INPLANE=100.00
		FIELD_CROSSPLANE=100.00
		FIELD_TYPE=RECTANGULAR
		GANTRY=0.00
		GANTRY_UPRIGHT_POSITION=0
		GANTRY_ROTATION=CW
		COLL_ANGLE=90.00
		COLL_OFFSET_INPLANE=0.00
		COLL_OFFSET_CROSSPLANE=0.00
		SCAN_DEVICE=STARCHECK
		ELECTROMETER=2D_ARRAY_INTERFACE
		DETECTOR=STARCHECK
		SCAN_CURVETYPE=INPLANE_PROFILE
		SCAN_DEPTH=0.00
		SCAN_OFFAXIS_CROSSPLANE=100.00
		SCAN_ANGLE=0.00
		SCAN_DIAGONAL=NOT_DIAGONAL
		MEAS_PRESET=TIME_PRESET
		MEAS_TIME=10.000
		MEAS_UNIT=GY
		PRESSURE=1013.25
		TEMPERATURE=20.00
		NORM_TEMPERATURE=20.00
		CORRECTION_FACTOR=1.0000
		CORRECTIONS=AIR_DENSITY_CORR;
		BEGIN_DATA
			-60.00		8.5703E-03
			-30.00		10.425E-03
			30.00		10.069E-03
			60.00		6.9087E-03
		END_DATA
	END_SCAN  13
	BEGIN_SCAN  14
		TASK_NAME=MODE_INTERVAL
		PROGRAM=BeamAdjust 1.2
		MEAS_DATE=07-Oct-2010 14:08:35
		LINAC=A4
		MODALITY=X
		INPLANE_AXIS_DIR=TARGET_GUN
		CROSSPLANE_AXIS_DIR=LEFT_RIGHT
		DEPTH_AXIS_DIR=UP_DOWN
		ENERGY=6.00
		SSD=950.00
		WEDGE=None
		FIELD_INPLANE=100.00
		FIELD_CROSSPLANE=100.00
		FIELD_TYPE=RECTANGULAR
		GANTRY=0.00
		GANTRY_UPRIGHT_POSITION=0
		GANTRY_ROTATION=CW
		COLL_ANGLE=90.00
		COLL_OFFSET_INPLANE=0.00
		COLL_OFFSET_CROSSPLANE=0.00
		SCAN_DEVICE=STARCHECK
		ELECTROMETER=2D_ARRAY_INTERFACE
		DETECTOR=STARCHECK
		SCAN_CURVETYPE=INPLANE_PROFILE
		SCAN_DEPTH=0.00
		SCAN_OFFAXIS_CROSSPLANE=130.00
		SCAN_ANGLE=0.00
		SCAN_DIAGONAL=NOT_DIAGONAL
		MEAS_PRESET=TIME_PRESET
		MEAS_TIME=10.000
		MEAS_UNIT=GY
		PRESSURE=1013.25
		TEMPERATURE=20.00
		NORM_TEMPERATURE=20.00
		CORRECTION_FACTOR=1.0000
		CORRECTIONS=AIR_DENSITY_CORR;
		BEGIN_DATA
			-130.00		1.9135E-03
			-125.00		2.5641E-03
			-120.00		2.2231E-03
			-115.00		2.8130E-03
			-110.00		2.8341E-03
			-105.00		2.9412E-03
			-100.00		3.3686E-03
			-95.00		3.0938E-03
			-90.00		2.9309E-03
			-85.00		4.7041E-03
			-80.00		3.6489E-03
			-75.00		3.7326E-03
			-70.00		4.1636E-03
			-65.00		4.0366E-03
			-60.00		4.9392E-03
			-55.00		4.2277E-03
			-50.00		4.5780E-03
			-45.00		4.8596E-03
			-40.00		5.1240E-03
			-35.00		5.2877E-03
			-30.00		5.3958E-03
			-25.00		5.2296E-03
			-20.00		5.2630E-03
			-15.00		5.7916E-03
			-10.00		4.8391E-03
			-5.00		5.6907E-03
			0.00		5.8979E-03
			5.00		5.4262E-03
			10.00		5.7326E-03
			15.00		5.1513E-03
			20.00		5.6265E-03
			25.00		5.0061E-03
			30.00		4.9895E-03
			35.00		4.8053E-03
			40.00		5.4356E-03
			45.00		4.9102E-03
			50.00		4.5375E-03
			55.00		5.2573E-03
			60.00		4.4010E-03
			65.00		3.8419E-03
			70.00		3.9124E-03
			75.00		3.7566E-03
			80.00		3.9567E-03
			85.00		3.4455E-03
			90.00		3.2765E-03
			95.00		2.8917E-03
			100.00		3.5289E-03
			105.00		2.2114E-03
			110.00		2.7182E-03
			115.00		2.2629E-03
			120.00		2.9306E-03
			125.00		2.3361E-03
			130.00		1.8583E-03
		END_DATA
	END_SCAN  14
	BEGIN_SCAN  15
		TASK_NAME=MODE_INTERVAL
		PROGRAM=BeamAdjust 1.2
		MEAS_DATE=07-Oct-2010 14:08:35
		LINAC=A4
		MODALITY=X
		INPLANE_AXIS_DIR=TARGET_GUN
		CROSSPLANE_AXIS_DIR=LEFT_RIGHT
		DEPTH_AXIS_DIR=UP_DOWN
		ENERGY=6.00
		SSD=950.00
		WEDGE=None
		FIELD_INPLANE=100.00
		FIELD_CROSSPLANE=100.00
		FIELD_TYPE=RECTANGULAR
		GANTRY=0.00
		GANTRY_UPRIGHT_POSITION=0
		GANTRY_ROTATION=CW
		COLL_ANGLE=90.00
		COLL_OFFSET_INPLANE=0.00
		COLL_OFFSET_CROSSPLANE=0.00
		SCAN_DEVICE=STARCHECK
		ELECTROMETER=2D_ARRAY_INTERFACE
		DETECTOR=STARCHECK
		SCAN_CURVETYPE=INPLANE_PROFILE
		SCAN_DEPTH=0.00
		SCAN_OFFAXIS_CROSSPLANE=0.00
		SCAN_ANGLE=0.00
		SCAN_DIAGONAL=FIRST_DIAGONAL
		MEAS_PRESET=TIME_PRESET
		MEAS_TIME=10.000
		MEAS_UNIT=GY
		PRESSURE=1013.25
		TEMPERATURE=20.00
		NORM_TEMPERATURE=20.00
		CORRECTION_FACTOR=1.0000
		CORRECTIONS=AIR_DENSITY_CORR;
		BEGIN_DATA
			-172.40		3.0244E-03
			-169.40		2.9233E-03
			-166.40		4.2198E-03
			-163.40		3.6733E-03
			-160.40		4.3324E-03
			-157.40		4.1988E-03
			-154.40		4.2213E-03
			-151.40		4.3804E-03
			-148.40		4.6531E-03
			-145.40		5.6632E-03
			-142.40		5.8704E-03
			-139.40		6.3597E-03
			-136.40		6.8584E-03
			-133.40		7.3936E-03
			-130.40		7.8752E-03
			-127.40		8.2324E-03
			-124.40		8.9708E-03
			-121.40		9.4795E-03
			-118.40		11.067E-03
			-115.40		11.445E-03
			-112.40		12.437E-03
			-109.40		13.813E-03
			-106.40		15.022E-03
			-103.40		16.028E-03
			-100.40		17.414E-03
			-97.40		20.211E-03
			-94.40		22.642E-03
			-91.40		25.156E-03
			-88.40		28.786E-03
			-85.40		33.260E-03
			-82.40		40.735E-03
			-79.40		55.283E-03
			-76.40		98.359E-03
			-73.40		226.92E-03
			-70.40		389.46E-03
			-67.40		526.55E-03
			-64.40		595.73E-03
			-61.40		621.12E-03
			-58.40		633.07E-03
			-55.40		640.99E-03
			-52.40		646.35E-03
			-49.40		649.88E-03
			-46.40		651.28E-03
			-43.40		653.35E-03
			-40.40		655.22E-03
			-37.40		659.55E-03
			-34.40		659.01E-03
			-31.40		660.25E-03
			-28.40		658.63E-03
			-25.40		662.23E-03
			-22.40		663.13E-03
			-19.40		663.95E-03
			-16.40		666.05E-03
			-13.40		666.83E-03
			0.00		666.45E-03
			13.40		666.52E-03
			16.40		662.12E-03
			19.40		662.55E-03
			22.40		661.04E-03
			25.40		659.53E-03
			28.40		658.30E-03
			31.40		654.94E-03
			34.40		651.19E-03
			37.40		652.79E-03
			40.40		648.74E-03
			43.40		643.52E-03
			46.40		638.90E-03
			49.40		626.03E-03
			52.40		605.93E-03
			55.40		547.42E-03
			58.40		434.72E-03
			61.40		281.87E-03
			64.40		150.51E-03
			67.40		78.588E-03
			70.40		50.101E-03
			73.40		39.397E-03
			76.40		32.793E-03
			79.40		28.709E-03
			82.40		25.296E-03
			85.40		22.380E-03
			88.40		21.042E-03
			91.40		18.185E-03
			94.40		17.257E-03
			97.40		15.523E-03
			100.40		14.144E-03
			103.40		13.016E-03
			106.40		12.019E-03
			109.40		10.952E-03
			112.40		9.2064E-03
			115.40		9.1872E-03
			118.40		7.9379E-03
			121.40		7.8795E-03
			124.40		7.0247E-03
			127.40		7.1135E-03
			130.40		6.7032E-03
			133.40		5.4746E-03
			136.40		5.0581E-03
			139.40		4.9334E-03
			142.40		4.5316E-03
			145.40		4.0031E-03
			148.40		4.4461E-03
			151.40		3.2917E-03
			154.40		3.6111E-03
			157.40		3.3782E-03
			160.40		2.4370E-03
			163.40		2.5917E-03
			166.40		2.5642E-03
			169.40		2.6414E-03
			172.40		2.3833E-03
		END_DATA
	END_SCAN  15
	BEGIN_SCAN  16
		TASK_NAME=MODE_INTERVAL
		PROGRAM=BeamAdjust 1.2
		MEAS_DATE=07-Oct-2010 14:08:35
		LINAC=A4
		MODALITY=X
		INPLANE_AXIS_DIR=GUN_TARGET
		CROSSPLANE_AXIS_DIR=LEFT_RIGHT
		DEPTH_AXIS_DIR=UP_DOWN
		ENERGY=6.00
		SSD=950.00
		WEDGE=None
		FIELD_INPLANE=100.00
		FIELD_CROSSPLANE=100.00
		FIELD_TYPE=RECTANGULAR
		GANTRY=0.00
		GANTRY_UPRIGHT_POSITION=0
		GANTRY_ROTATION=CW
		COLL_ANGLE=90.00
		COLL_OFFSET_INPLANE=0.00
		COLL_OFFSET_CROSSPLANE=0.00
		SCAN_DEVICE=STARCHECK
		ELECTROMETER=2D_ARRAY_INTERFACE
		DETECTOR=STARCHECK
		SCAN_CURVETYPE=INPLANE_PROFILE
		SCAN_DEPTH=0.00
		SCAN_OFFAXIS_CROSSPLANE=0.00
		SCAN_ANGLE=0.00
		SCAN_DIAGONAL=SECOND_DIAGONAL
		MEAS_PRESET=TIME_PRESET
		MEAS_TIME=10.000
		MEAS_UNIT=GY
		PRESSURE=1013.25
		TEMPERATURE=20.00
		NORM_TEMPERATURE=20.00
		CORRECTION_FACTOR=1.0000
		CORRECTIONS=AIR_DENSITY_CORR;
		BEGIN_DATA
			-172.40		3.5789E-03
			-169.40		3.0861E-03
			-166.40		3.3703E-03
			-163.40		3.0847E-03
			-160.40		3.7575E-03
			-157.40		3.9019E-03
			-154.40		4.1590E-03
			-151.40		4.8492E-03
			-148.40		4.7954E-03
			-145.40		4.9324E-03
			-142.40		5.8267E-03
			-139.40		5.3644E-03
			-136.40		6.3335E-03
			-133.40		6.8584E-03
			-130.40		8.1550E-03
			-127.40		8.2780E-03
			-124.40		9.2409E-03
			-121.40		9.5861E-03
			-118.40		10.563E-03
			-115.40		10.816E-03
			-112.40		11.778E-03
			-109.40		13.316E-03
			-106.40		14.544E-03
			-103.40		16.092E-03
			-100.40		17.687E-03
			-97.40		19.321E-03
			-94.40		21.648E-03
			-91.40		23.784E-03
			-88.40		27.381E-03
			-85.40		30.596E-03
			-82.40		36.838E-03
			-79.40		48.013E-03
			-76.40		73.873E-03
			-73.40		161.66E-03
			-70.40		315.47E-03
			-67.40		472.42E-03
			-64.40		577.26E-03
			-61.40		617.68E-03
			-58.40		635.75E-03
			-55.40		643.26E-03
			-52.40		652.32E-03
			-49.40		655.59E-03
			-46.40		658.58E-03
			-43.40		660.11E-03
			-40.40		661.84E-03
			-37.40		664.40E-03
			-34.40		663.16E-03
			-31.40		663.36E-03
			-28.40		665.33E-03
			-25.40		664.07E-03
			-22.40		662.79E-03
			-19.40		666.52E-03
			-16.40		667.24E-03
			-13.40		669.14E-03
			0.00		666.45E-03
			13.40		664.84E-03
			16.40		662.49E-03
			19.40		660.78E-03
			22.40		657.41E-03
			25.40		656.93E-03
			28.40		655.20E-03
			31.40		652.90E-03
			34.40		649.17E-03
			37.40		648.05E-03
			40.40		645.45E-03
			43.40		641.73E-03
			46.40		636.84E-03
			49.40		627.30E-03
			52.40		605.43E-03
			55.40		557.49E-03
			58.40		457.45E-03
			61.40		310.07E-03
			64.40		167.71E-03
			67.40		85.112E-03
			70.40		52.533E-03
			73.40		40.014E-03
			76.40		33.081E-03
			79.40		28.653E-03
			82.40		26.046E-03
			85.40		23.699E-03
			88.40		20.907E-03
			91.40		19.599E-03
			94.40		17.257E-03
			97.40		15.943E-03
			100.40		13.713E-03
			103.40		13.236E-03
			106.40		12.024E-03
			109.40		10.986E-03
			112.40		10.092E-03
			115.40		9.2906E-03
			118.40		8.7744E-03
			121.40		7.8407E-03
			124.40		6.9877E-03
			127.40		6.8823E-03
			130.40		6.5604E-03
			133.40		6.4865E-03
			136.40		5.3331E-03
			139.40		5.8953E-03
			142.40		5.0947E-03
			145.40		5.3653E-03
			148.40		4.4336E-03
			151.40		4.0866E-03
			154.40		3.7556E-03
			157.40		3.9254E-03
			160.40		3.3255E-03
			163.40		3.6631E-03
			166.40		3.3795E-03
			169.40		2.7079E-03
			172.40		2.1246E-03
		END_DATA
	END_SCAN  16
END_SCAN_DATA
