BEGIN_SCAN_DATA
	FORMAT=CC-Export V1.9                  
	FILE_CREATION_DATE=07-Oct-2010 14:19:35
	LAST_MODIFIED=07-Oct-2010 14:19:35
	BEGIN_SCAN  1
		TASK_NAME=MODE_INTERVAL
		PROGRAM=BeamAdjust 1.2
		MEAS_DATE=07-Oct-2010 14:19:34
		LINAC=A4
		MODALITY=X
		INPLANE_AXIS_DIR=TARGET_GUN
		CROSSPLANE_AXIS_DIR=LEFT_RIGHT
		DEPTH_AXIS_DIR=UP_DOWN
		ENERGY=6.00
		SSD=950.00
		WEDGE=None
		FIELD_INPLANE=100.00
		FIELD_CROSSPLANE=100.00
		FIELD_TYPE=RECTANGULAR
		GANTRY=0.00
		GANTRY_UPRIGHT_POSITION=0
		GANTRY_ROTATION=CW
		COLL_ANGLE=90.00
		COLL_OFFSET_INPLANE=0.00
		COLL_OFFSET_CROSSPLANE=0.00
		SCAN_DEVICE=STARCHECK
		ELECTROMETER=2D_ARRAY_INTERFACE
		DETECTOR=STARCHECK
		SCAN_CURVETYPE=CROSSPLANE_PROFILE
		SCAN_DEPTH=0.00
		SCAN_OFFAXIS_INPLANE=-130.00
		SCAN_ANGLE=0.00
		SCAN_DIAGONAL=NOT_DIAGONAL
		MEAS_PRESET=TIME_PRESET
		MEAS_TIME=10.000
		MEAS_UNIT=GY
		PRESSURE=1013.25
		TEMPERATURE=20.00
		NORM_TEMPERATURE=20.00
		CORRECTION_FACTOR=1.0000
		CORRECTIONS=AIR_DENSITY_CORR;
		BEGIN_DATA
			-130.00		2.4109E-03
			-80.00		4.5317E-03
			-40.00		7.2309E-03
			40.00		7.0608E-03
			80.00		4.0889E-03
			130.00		2.1768E-03
		END_DATA
	END_SCAN  1
	BEGIN_SCAN  2
		TASK_NAME=MODE_INTERVAL
		PROGRAM=BeamAdjust 1.2
		MEAS_DATE=07-Oct-2010 14:19:35
		LINAC=A4
		MODALITY=X
		INPLANE_AXIS_DIR=TARGET_GUN
		CROSSPLANE_AXIS_DIR=LEFT_RIGHT
		DEPTH_AXIS_DIR=UP_DOWN
		ENERGY=6.00
		SSD=950.00
		WEDGE=None
		FIELD_INPLANE=100.00
		FIELD_CROSSPLANE=100.00
		FIELD_TYPE=RECTANGULAR
		GANTRY=0.00
		GANTRY_UPRIGHT_POSITION=0
		GANTRY_ROTATION=CW
		COLL_ANGLE=90.00
		COLL_OFFSET_INPLANE=0.00
		COLL_OFFSET_CROSSPLANE=0.00
		SCAN_DEVICE=STARCHECK
		ELECTROMETER=2D_ARRAY_INTERFACE
		DETECTOR=STARCHECK
		SCAN_CURVETYPE=CROSSPLANE_PROFILE
		SCAN_DEPTH=0.00
		SCAN_OFFAXIS_INPLANE=-100.00
		SCAN_ANGLE=0.00
		SCAN_DIAGONAL=NOT_DIAGONAL
		MEAS_PRESET=TIME_PRESET
		MEAS_TIME=10.000
		MEAS_UNIT=GY
		PRESSURE=1013.25
		TEMPERATURE=20.00
		NORM_TEMPERATURE=20.00
		CORRECTION_FACTOR=1.0000
		CORRECTIONS=AIR_DENSITY_CORR;
		BEGIN_DATA
			-60.00		10.244E-03
			-30.00		14.712E-03
			30.00		14.927E-03
			60.00		10.244E-03
		END_DATA
	END_SCAN  2
	BEGIN_SCAN  3
		TASK_NAME=MODE_INTERVAL
		PROGRAM=BeamAdjust 1.2
		MEAS_DATE=07-Oct-2010 14:19:35
		LINAC=A4
		MODALITY=X
		INPLANE_AXIS_DIR=TARGET_GUN
		CROSSPLANE_AXIS_DIR=LEFT_RIGHT
		DEPTH_AXIS_DIR=UP_DOWN
		ENERGY=6.00
		SSD=950.00
		WEDGE=None
		FIELD_INPLANE=100.00
		FIELD_CROSSPLANE=100.00
		FIELD_TYPE=RECTANGULAR
		GANTRY=0.00
		GANTRY_UPRIGHT_POSITION=0
		GANTRY_ROTATION=CW
		COLL_ANGLE=90.00
		COLL_OFFSET_INPLANE=0.00
		COLL_OFFSET_CROSSPLANE=0.00
		SCAN_DEVICE=STARCHECK
		ELECTROMETER=2D_ARRAY_INTERFACE
		DETECTOR=STARCHECK
		SCAN_CURVETYPE=CROSSPLANE_PROFILE
		SCAN_DEPTH=0.00
		SCAN_OFFAXIS_INPLANE=-50.00
		SCAN_ANGLE=0.00
		SCAN_DIAGONAL=NOT_DIAGONAL
		MEAS_PRESET=TIME_PRESET
		MEAS_TIME=10.000
		MEAS_UNIT=GY
		PRESSURE=1013.25
		TEMPERATURE=20.00
		NORM_TEMPERATURE=20.00
		CORRECTION_FACTOR=1.0000
		CORRECTIONS=AIR_DENSITY_CORR;
		BEGIN_DATA
			-30.00		394.05E-03
			-15.00		355.35E-03
			15.00		381.25E-03
			30.00		391.62E-03
		END_DATA
	END_SCAN  3
	BEGIN_SCAN  4
		TASK_NAME=MODE_INTERVAL
		PROGRAM=BeamAdjust 1.2
		MEAS_DATE=07-Oct-2010 14:19:35
		LINAC=A4
		MODALITY=X
		INPLANE_AXIS_DIR=TARGET_GUN
		CROSSPLANE_AXIS_DIR=LEFT_RIGHT
		DEPTH_AXIS_DIR=UP_DOWN
		ENERGY=6.00
		SSD=950.00
		WEDGE=None
		FIELD_INPLANE=100.00
		FIELD_CROSSPLANE=100.00
		FIELD_TYPE=RECTANGULAR
		GANTRY=0.00
		GANTRY_UPRIGHT_POSITION=0
		GANTRY_ROTATION=CW
		COLL_ANGLE=90.00
		COLL_OFFSET_INPLANE=0.00
		COLL_OFFSET_CROSSPLANE=0.00
		SCAN_DEVICE=STARCHECK
		ELECTROMETER=2D_ARRAY_INTERFACE
		DETECTOR=STARCHECK
		SCAN_CURVETYPE=CROSSPLANE_PROFILE
		SCAN_DEPTH=0.00
		SCAN_OFFAXIS_INPLANE=0.00
		SCAN_ANGLE=0.00
		SCAN_DIAGONAL=NOT_DIAGONAL
		MEAS_PRESET=TIME_PRESET
		MEAS_TIME=10.000
		MEAS_UNIT=GY
		PRESSURE=1013.25
		TEMPERATURE=20.00
		NORM_TEMPERATURE=20.00
		CORRECTION_FACTOR=1.0000
		CORRECTIONS=AIR_DENSITY_CORR;
		BEGIN_DATA
			-126.00		6.5722E-03
			-123.00		7.4831E-03
			-120.00		7.8704E-03
			-117.00		8.6712E-03
			-114.00		9.0721E-03
			-111.00		9.3213E-03
			-108.00		10.191E-03
			-105.00		11.085E-03
			-102.00		12.124E-03
			-99.00		13.241E-03
			-96.00		13.942E-03
			-93.00		15.197E-03
			-90.00		16.491E-03
			-87.00		18.026E-03
			-84.00		20.341E-03
			-81.00		22.103E-03
			-78.00		24.090E-03
			-75.00		26.961E-03
			-72.00		29.747E-03
			-69.00		34.110E-03
			-66.00		39.645E-03
			-63.00		45.481E-03
			-60.00		54.782E-03
			-57.00		72.344E-03
			-54.00		114.14E-03
			-51.00		291.36E-03
			-48.00		555.31E-03
			-45.00		617.08E-03
			-42.00		636.36E-03
			-39.00		648.99E-03
			-36.00		655.02E-03
			-33.00		655.10E-03
			-30.00		657.15E-03
			-27.00		659.90E-03
			-24.00		662.75E-03
			-21.00		661.89E-03
			-18.00		667.92E-03
			-15.00		668.35E-03
			-12.00		667.59E-03
			-9.00		669.94E-03
			-6.00		669.00E-03
			0.00		667.91E-03
			6.00		671.73E-03
			9.00		670.97E-03
			12.00		668.57E-03
			15.00		667.45E-03
			18.00		666.67E-03
			21.00		664.93E-03
			24.00		661.57E-03
			27.00		665.84E-03
			30.00		663.66E-03
			33.00		661.45E-03
			36.00		657.96E-03
			39.00		651.85E-03
			42.00		640.44E-03
			45.00		615.18E-03
			48.00		526.63E-03
			51.00		232.38E-03
			54.00		102.20E-03
			57.00		68.520E-03
			60.00		52.995E-03
			63.00		44.250E-03
			66.00		37.971E-03
			69.00		33.888E-03
			72.00		29.548E-03
			75.00		26.344E-03
			78.00		23.854E-03
			81.00		21.733E-03
			84.00		19.697E-03
			87.00		17.634E-03
			90.00		16.681E-03
			93.00		15.195E-03
			96.00		13.407E-03
			99.00		12.550E-03
			102.00		11.524E-03
			105.00		10.822E-03
			108.00		10.591E-03
			111.00		9.8016E-03
			114.00		8.6214E-03
			117.00		7.7256E-03
			120.00		7.3447E-03
			123.00		7.2851E-03
			126.00		7.0398E-03
		END_DATA
	END_SCAN  4
	BEGIN_SCAN  5
		TASK_NAME=MODE_INTERVAL
		PROGRAM=BeamAdjust 1.2
		MEAS_DATE=07-Oct-2010 14:19:35
		LINAC=A4
		MODALITY=X
		INPLANE_AXIS_DIR=TARGET_GUN
		CROSSPLANE_AXIS_DIR=LEFT_RIGHT
		DEPTH_AXIS_DIR=UP_DOWN
		ENERGY=6.00
		SSD=950.00
		WEDGE=None
		FIELD_INPLANE=100.00
		FIELD_CROSSPLANE=100.00
		FIELD_TYPE=RECTANGULAR
		GANTRY=0.00
		GANTRY_UPRIGHT_POSITION=0
		GANTRY_ROTATION=CW
		COLL_ANGLE=90.00
		COLL_OFFSET_INPLANE=0.00
		COLL_OFFSET_CROSSPLANE=0.00
		SCAN_DEVICE=STARCHECK
		ELECTROMETER=2D_ARRAY_INTERFACE
		DETECTOR=STARCHECK
		SCAN_CURVETYPE=CROSSPLANE_PROFILE
		SCAN_DEPTH=0.00
		SCAN_OFFAXIS_INPLANE=50.00
		SCAN_ANGLE=0.00
		SCAN_DIAGONAL=NOT_DIAGONAL
		MEAS_PRESET=TIME_PRESET
		MEAS_TIME=10.000
		MEAS_UNIT=GY
		PRESSURE=1013.25
		TEMPERATURE=20.00
		NORM_TEMPERATURE=20.00
		CORRECTION_FACTOR=1.0000
		CORRECTIONS=AIR_DENSITY_CORR;
		BEGIN_DATA
			-30.00		271.70E-03
			-15.00		284.72E-03
			15.00		254.99E-03
			30.00		261.57E-03
		END_DATA
	END_SCAN  5
	BEGIN_SCAN  6
		TASK_NAME=MODE_INTERVAL
		PROGRAM=BeamAdjust 1.2
		MEAS_DATE=07-Oct-2010 14:19:35
		LINAC=A4
		MODALITY=X
		INPLANE_AXIS_DIR=TARGET_GUN
		CROSSPLANE_AXIS_DIR=LEFT_RIGHT
		DEPTH_AXIS_DIR=UP_DOWN
		ENERGY=6.00
		SSD=950.00
		WEDGE=None
		FIELD_INPLANE=100.00
		FIELD_CROSSPLANE=100.00
		FIELD_TYPE=RECTANGULAR
		GANTRY=0.00
		GANTRY_UPRIGHT_POSITION=0
		GANTRY_ROTATION=CW
		COLL_ANGLE=90.00
		COLL_OFFSET_INPLANE=0.00
		COLL_OFFSET_CROSSPLANE=0.00
		SCAN_DEVICE=STARCHECK
		ELECTROMETER=2D_ARRAY_INTERFACE
		DETECTOR=STARCHECK
		SCAN_CURVETYPE=CROSSPLANE_PROFILE
		SCAN_DEPTH=0.00
		SCAN_OFFAXIS_INPLANE=100.00
		SCAN_ANGLE=0.00
		SCAN_DIAGONAL=NOT_DIAGONAL
		MEAS_PRESET=TIME_PRESET
		MEAS_TIME=10.000
		MEAS_UNIT=GY
		PRESSURE=1013.25
		TEMPERATURE=20.00
		NORM_TEMPERATURE=20.00
		CORRECTION_FACTOR=1.0000
		CORRECTIONS=AIR_DENSITY_CORR;
		BEGIN_DATA
			-60.00		10.127E-03
			-30.00		14.947E-03
			30.00		14.813E-03
			60.00		8.8601E-03
		END_DATA
	END_SCAN  6
	BEGIN_SCAN  7
		TASK_NAME=MODE_INTERVAL
		PROGRAM=BeamAdjust 1.2
		MEAS_DATE=07-Oct-2010 14:19:35
		LINAC=A4
		MODALITY=X
		INPLANE_AXIS_DIR=TARGET_GUN
		CROSSPLANE_AXIS_DIR=LEFT_RIGHT
		DEPTH_AXIS_DIR=UP_DOWN
		ENERGY=6.00
		SSD=950.00
		WEDGE=None
		FIELD_INPLANE=100.00
		FIELD_CROSSPLANE=100.00
		FIELD_TYPE=RECTANGULAR
		GANTRY=0.00
		GANTRY_UPRIGHT_POSITION=0
		GANTRY_ROTATION=CW
		COLL_ANGLE=90.00
		COLL_OFFSET_INPLANE=0.00
		COLL_OFFSET_CROSSPLANE=0.00
		SCAN_DEVICE=STARCHECK
		ELECTROMETER=2D_ARRAY_INTERFACE
		DETECTOR=STARCHECK
		SCAN_CURVETYPE=CROSSPLANE_PROFILE
		SCAN_DEPTH=0.00
		SCAN_OFFAXIS_INPLANE=130.00
		SCAN_ANGLE=0.00
		SCAN_DIAGONAL=NOT_DIAGONAL
		MEAS_PRESET=TIME_PRESET
		MEAS_TIME=10.000
		MEAS_UNIT=GY
		PRESSURE=1013.25
		TEMPERATURE=20.00
		NORM_TEMPERATURE=20.00
		CORRECTION_FACTOR=1.0000
		CORRECTIONS=AIR_DENSITY_CORR;
		BEGIN_DATA
			-130.00		1.8181E-03
			-80.00		4.1285E-03
			-40.00		7.6159E-03
			40.00		7.3628E-03
			80.00		4.2946E-03
			130.00		2.0815E-03
		END_DATA
	END_SCAN  7
	BEGIN_SCAN  8
		TASK_NAME=MODE_INTERVAL
		PROGRAM=BeamAdjust 1.2
		MEAS_DATE=07-Oct-2010 14:19:35
		LINAC=A4
		MODALITY=X
		INPLANE_AXIS_DIR=TARGET_GUN
		CROSSPLANE_AXIS_DIR=LEFT_RIGHT
		DEPTH_AXIS_DIR=UP_DOWN
		ENERGY=6.00
		SSD=950.00
		WEDGE=None
		FIELD_INPLANE=100.00
		FIELD_CROSSPLANE=100.00
		FIELD_TYPE=RECTANGULAR
		GANTRY=0.00
		GANTRY_UPRIGHT_POSITION=0
		GANTRY_ROTATION=CW
		COLL_ANGLE=90.00
		COLL_OFFSET_INPLANE=0.00
		COLL_OFFSET_CROSSPLANE=0.00
		SCAN_DEVICE=STARCHECK
		ELECTROMETER=2D_ARRAY_INTERFACE
		DETECTOR=STARCHECK
		SCAN_CURVETYPE=INPLANE_PROFILE
		SCAN_DEPTH=0.00
		SCAN_OFFAXIS_CROSSPLANE=-130.00
		SCAN_ANGLE=0.00
		SCAN_DIAGONAL=NOT_DIAGONAL
		MEAS_PRESET=TIME_PRESET
		MEAS_TIME=10.000
		MEAS_UNIT=GY
		PRESSURE=1013.25
		TEMPERATURE=20.00
		NORM_TEMPERATURE=20.00
		CORRECTION_FACTOR=1.0000
		CORRECTIONS=AIR_DENSITY_CORR;
		BEGIN_DATA
			-130.00		2.4109E-03
			-125.00		2.5766E-03
			-120.00		3.4773E-03
			-115.00		3.5151E-03
			-110.00		3.3487E-03
			-105.00		3.4669E-03
			-100.00		3.8770E-03
			-95.00		4.5075E-03
			-90.00		4.6984E-03
			-85.00		4.2804E-03
			-80.00		4.1436E-03
			-75.00		4.8363E-03
			-70.00		4.9356E-03
			-65.00		5.1292E-03
			-60.00		5.1896E-03
			-55.00		5.9200E-03
			-50.00		4.7103E-03
			-45.00		4.6284E-03
			-40.00		4.7616E-03
			-35.00		5.5165E-03
			-30.00		5.3877E-03
			-25.00		4.9295E-03
			-20.00		5.0692E-03
			-15.00		4.8521E-03
			-10.00		5.2537E-03
			-5.00		6.2590E-03
			0.00		6.1320E-03
			5.00		6.2771E-03
			10.00		5.4937E-03
			15.00		5.4870E-03
			20.00		6.2176E-03
			25.00		5.1937E-03
			30.00		5.3646E-03
			35.00		5.2096E-03
			40.00		5.2644E-03
			45.00		4.7937E-03
			50.00		4.8911E-03
			55.00		4.4705E-03
			60.00		4.3505E-03
			65.00		3.7825E-03
			70.00		3.7725E-03
			75.00		4.0223E-03
			80.00		3.5790E-03
			85.00		3.7628E-03
			90.00		3.3970E-03
			95.00		3.2458E-03
			100.00		2.7949E-03
			105.00		2.2738E-03
			110.00		2.6111E-03
			115.00		2.3440E-03
			120.00		2.3714E-03
			125.00		2.3123E-03
			130.00		1.8181E-03
		END_DATA
	END_SCAN  8
	BEGIN_SCAN  9
		TASK_NAME=MODE_INTERVAL
		PROGRAM=BeamAdjust 1.2
		MEAS_DATE=07-Oct-2010 14:19:35
		LINAC=A4
		MODALITY=X
		INPLANE_AXIS_DIR=TARGET_GUN
		CROSSPLANE_AXIS_DIR=LEFT_RIGHT
		DEPTH_AXIS_DIR=UP_DOWN
		ENERGY=6.00
		SSD=950.00
		WEDGE=None
		FIELD_INPLANE=100.00
		FIELD_CROSSPLANE=100.00
		FIELD_TYPE=RECTANGULAR
		GANTRY=0.00
		GANTRY_UPRIGHT_POSITION=0
		GANTRY_ROTATION=CW
		COLL_ANGLE=90.00
		COLL_OFFSET_INPLANE=0.00
		COLL_OFFSET_CROSSPLANE=0.00
		SCAN_DEVICE=STARCHECK
		ELECTROMETER=2D_ARRAY_INTERFACE
		DETECTOR=STARCHECK
		SCAN_CURVETYPE=INPLANE_PROFILE
		SCAN_DEPTH=0.00
		SCAN_OFFAXIS_CROSSPLANE=-100.00
		SCAN_ANGLE=0.00
		SCAN_DIAGONAL=NOT_DIAGONAL
		MEAS_PRESET=TIME_PRESET
		MEAS_TIME=10.000
		MEAS_UNIT=GY
		PRESSURE=1013.25
		TEMPERATURE=20.00
		NORM_TEMPERATURE=20.00
		CORRECTION_FACTOR=1.0000
		CORRECTIONS=AIR_DENSITY_CORR;
		BEGIN_DATA
			-60.00		8.4735E-03
			-30.00		10.518E-03
			30.00		10.026E-03
			60.00		7.8769E-03
		END_DATA
	END_SCAN  9
	BEGIN_SCAN  10
		TASK_NAME=MODE_INTERVAL
		PROGRAM=BeamAdjust 1.2
		MEAS_DATE=07-Oct-2010 14:19:35
		LINAC=A4
		MODALITY=X
		INPLANE_AXIS_DIR=TARGET_GUN
		CROSSPLANE_AXIS_DIR=LEFT_RIGHT
		DEPTH_AXIS_DIR=UP_DOWN
		ENERGY=6.00
		SSD=950.00
		WEDGE=None
		FIELD_INPLANE=100.00
		FIELD_CROSSPLANE=100.00
		FIELD_TYPE=RECTANGULAR
		GANTRY=0.00
		GANTRY_UPRIGHT_POSITION=0
		GANTRY_ROTATION=CW
		COLL_ANGLE=90.00
		COLL_OFFSET_INPLANE=0.00
		COLL_OFFSET_CROSSPLANE=0.00
		SCAN_DEVICE=STARCHECK
		ELECTROMETER=2D_ARRAY_INTERFACE
		DETECTOR=STARCHECK
		SCAN_CURVETYPE=INPLANE_PROFILE
		SCAN_DEPTH=0.00
		SCAN_OFFAXIS_CROSSPLANE=-50.00
		SCAN_ANGLE=0.00
		SCAN_DIAGONAL=NOT_DIAGONAL
		MEAS_PRESET=TIME_PRESET
		MEAS_TIME=10.000
		MEAS_UNIT=GY
		PRESSURE=1013.25
		TEMPERATURE=20.00
		NORM_TEMPERATURE=20.00
		CORRECTION_FACTOR=1.0000
		CORRECTIONS=AIR_DENSITY_CORR;
		BEGIN_DATA
			-30.00		397.45E-03
			-15.00		394.03E-03
			15.00		383.46E-03
			30.00		372.62E-03
		END_DATA
	END_SCAN  10
	BEGIN_SCAN  11
		TASK_NAME=MODE_INTERVAL
		PROGRAM=BeamAdjust 1.2
		MEAS_DATE=07-Oct-2010 14:19:35
		LINAC=A4
		MODALITY=X
		INPLANE_AXIS_DIR=TARGET_GUN
		CROSSPLANE_AXIS_DIR=LEFT_RIGHT
		DEPTH_AXIS_DIR=UP_DOWN
		ENERGY=6.00
		SSD=950.00
		WEDGE=None
		FIELD_INPLANE=100.00
		FIELD_CROSSPLANE=100.00
		FIELD_TYPE=RECTANGULAR
		GANTRY=0.00
		GANTRY_UPRIGHT_POSITION=0
		GANTRY_ROTATION=CW
		COLL_ANGLE=90.00
		COLL_OFFSET_INPLANE=0.00
		COLL_OFFSET_CROSSPLANE=0.00
		SCAN_DEVICE=STARCHECK
		ELECTROMETER=2D_ARRAY_INTERFACE
		DETECTOR=STARCHECK
		SCAN_CURVETYPE=INPLANE_PROFILE
		SCAN_DEPTH=0.00
		SCAN_OFFAXIS_CROSSPLANE=0.00
		SCAN_ANGLE=0.00
		SCAN_DIAGONAL=NOT_DIAGONAL
		MEAS_PRESET=TIME_PRESET
		MEAS_TIME=10.000
		MEAS_UNIT=GY
		PRESSURE=1013.25
		TEMPERATURE=20.00
		NORM_TEMPERATURE=20.00
		CORRECTION_FACTOR=1.0000
		CORRECTIONS=AIR_DENSITY_CORR;
		BEGIN_DATA
			-126.00		8.9500E-03
			-123.00		9.1097E-03
			-120.00		10.505E-03
			-117.00		11.375E-03
			-114.00		11.597E-03
			-111.00		12.567E-03
			-108.00		13.683E-03
			-105.00		15.254E-03
			-102.00		15.953E-03
			-99.00		16.600E-03
			-96.00		18.395E-03
			-93.00		20.432E-03
			-90.00		21.632E-03
			-87.00		23.502E-03
			-84.00		25.657E-03
			-81.00		28.263E-03
			-78.00		30.661E-03
			-75.00		33.097E-03
			-72.00		36.441E-03
			-69.00		40.406E-03
			-66.00		45.747E-03
			-63.00		52.963E-03
			-60.00		62.506E-03
			-57.00		82.602E-03
			-54.00		133.73E-03
			-51.00		305.89E-03
			-48.00		557.39E-03
			-45.00		624.11E-03
			-42.00		644.08E-03
			-39.00		653.02E-03
			-36.00		658.37E-03
			-33.00		661.71E-03
			-30.00		665.38E-03
			-27.00		666.99E-03
			-24.00		666.49E-03
			-21.00		665.32E-03
			-18.00		671.10E-03
			-15.00		670.18E-03
			-12.00		671.68E-03
			-9.00		671.61E-03
			-6.00		668.04E-03
			0.00		667.91E-03
			6.00		672.08E-03
			9.00		671.74E-03
			12.00		671.18E-03
			15.00		668.78E-03
			18.00		664.38E-03
			21.00		663.96E-03
			24.00		660.83E-03
			27.00		662.31E-03
			30.00		658.38E-03
			33.00		655.55E-03
			36.00		653.09E-03
			39.00		641.93E-03
			42.00		630.27E-03
			45.00		595.90E-03
			48.00		432.58E-03
			51.00		187.58E-03
			54.00		98.023E-03
			57.00		69.475E-03
			60.00		56.160E-03
			63.00		47.989E-03
			66.00		42.723E-03
			69.00		38.306E-03
			72.00		35.176E-03
			75.00		31.107E-03
			78.00		27.650E-03
			81.00		25.762E-03
			84.00		23.921E-03
			87.00		21.948E-03
			90.00		20.496E-03
			93.00		18.718E-03
			96.00		17.328E-03
			99.00		16.069E-03
			102.00		14.626E-03
			105.00		13.253E-03
			108.00		12.705E-03
			111.00		11.770E-03
			114.00		11.785E-03
			117.00		10.177E-03
			120.00		9.3421E-03
			123.00		9.1601E-03
			126.00		8.0469E-03
		END_DATA
	END_SCAN  11
	BEGIN_SCAN  12
		TASK_NAME=MODE_INTERVAL
		PROGRAM=BeamAdjust 1.2
		MEAS_DATE=07-Oct-2010 14:19:35
		LINAC=A4
		MODALITY=X
		INPLANE_AXIS_DIR=TARGET_GUN
		CROSSPLANE_AXIS_DIR=LEFT_RIGHT
		DEPTH_AXIS_DIR=UP_DOWN
		ENERGY=6.00
		SSD=950.00
		WEDGE=None
		FIELD_INPLANE=100.00
		FIELD_CROSSPLANE=100.00
		FIELD_TYPE=RECTANGULAR
		GANTRY=0.00
		GANTRY_UPRIGHT_POSITION=0
		GANTRY_ROTATION=CW
		COLL_ANGLE=90.00
		COLL_OFFSET_INPLANE=0.00
		COLL_OFFSET_CROSSPLANE=0.00
		SCAN_DEVICE=STARCHECK
		ELECTROMETER=2D_ARRAY_INTERFACE
		DETECTOR=STARCHECK
		SCAN_CURVETYPE=INPLANE_PROFILE
		SCAN_DEPTH=0.00
		SCAN_OFFAXIS_CROSSPLANE=50.00
		SCAN_ANGLE=0.00
		SCAN_DIAGONAL=NOT_DIAGONAL
		MEAS_PRESET=TIME_PRESET
		MEAS_TIME=10.000
		MEAS_UNIT=GY
		PRESSURE=1013.25
		TEMPERATURE=20.00
		NORM_TEMPERATURE=20.00
		CORRECTION_FACTOR=1.0000
		CORRECTIONS=AIR_DENSITY_CORR;
		BEGIN_DATA
			-30.00		326.81E-03
			-15.00		336.09E-03
			15.00		343.78E-03
			30.00		345.16E-03
		END_DATA
	END_SCAN  12
	BEGIN_SCAN  13
		TASK_NAME=MODE_INTERVAL
		PROGRAM=BeamAdjust 1.2
		MEAS_DATE=07-Oct-2010 14:19:35
		LINAC=A4
		MODALITY=X
		INPLANE_AXIS_DIR=TARGET_GUN
		CROSSPLANE_AXIS_DIR=LEFT_RIGHT
		DEPTH_AXIS_DIR=UP_DOWN
		ENERGY=6.00
		SSD=950.00
		WEDGE=None
		FIELD_INPLANE=100.00
		FIELD_CROSSPLANE=100.00
		FIELD_TYPE=RECTANGULAR
		GANTRY=0.00
		GANTRY_UPRIGHT_POSITION=0
		GANTRY_ROTATION=CW
		COLL_ANGLE=90.00
		COLL_OFFSET_INPLANE=0.00
		COLL_OFFSET_CROSSPLANE=0.00
		SCAN_DEVICE=STARCHECK
		ELECTROMETER=2D_ARRAY_INTERFACE
		DETECTOR=STARCHECK
		SCAN_CURVETYPE=INPLANE_PROFILE
		SCAN_DEPTH=0.00
		SCAN_OFFAXIS_CROSSPLANE=100.00
		SCAN_ANGLE=0.00
		SCAN_DIAGONAL=NOT_DIAGONAL
		MEAS_PRESET=TIME_PRESET
		MEAS_TIME=10.000
		MEAS_UNIT=GY
		PRESSURE=1013.25
		TEMPERATURE=20.00
		NORM_TEMPERATURE=20.00
		CORRECTION_FACTOR=1.0000
		CORRECTIONS=AIR_DENSITY_CORR;
		BEGIN_DATA
			-60.00		7.7197E-03
			-30.00		10.205E-03
			30.00		10.718E-03
			60.00		7.5477E-03
		END_DATA
	END_SCAN  13
	BEGIN_SCAN  14
		TASK_NAME=MODE_INTERVAL
		PROGRAM=BeamAdjust 1.2
		MEAS_DATE=07-Oct-2010 14:19:35
		LINAC=A4
		MODALITY=X
		INPLANE_AXIS_DIR=TARGET_GUN
		CROSSPLANE_AXIS_DIR=LEFT_RIGHT
		DEPTH_AXIS_DIR=UP_DOWN
		ENERGY=6.00
		SSD=950.00
		WEDGE=None
		FIELD_INPLANE=100.00
		FIELD_CROSSPLANE=100.00
		FIELD_TYPE=RECTANGULAR
		GANTRY=0.00
		GANTRY_UPRIGHT_POSITION=0
		GANTRY_ROTATION=CW
		COLL_ANGLE=90.00
		COLL_OFFSET_INPLANE=0.00
		COLL_OFFSET_CROSSPLANE=0.00
		SCAN_DEVICE=STARCHECK
		ELECTROMETER=2D_ARRAY_INTERFACE
		DETECTOR=STARCHECK
		SCAN_CURVETYPE=INPLANE_PROFILE
		SCAN_DEPTH=0.00
		SCAN_OFFAXIS_CROSSPLANE=130.00
		SCAN_ANGLE=0.00
		SCAN_DIAGONAL=NOT_DIAGONAL
		MEAS_PRESET=TIME_PRESET
		MEAS_TIME=10.000
		MEAS_UNIT=GY
		PRESSURE=1013.25
		TEMPERATURE=20.00
		NORM_TEMPERATURE=20.00
		CORRECTION_FACTOR=1.0000
		CORRECTIONS=AIR_DENSITY_CORR;
		BEGIN_DATA
			-130.00		2.1768E-03
			-125.00		2.5819E-03
			-120.00		2.0916E-03
			-115.00		2.4618E-03
			-110.00		3.3571E-03
			-105.00		2.8846E-03
			-100.00		3.2661E-03
			-95.00		2.8503E-03
			-90.00		2.6895E-03
			-85.00		3.3611E-03
			-80.00		3.5781E-03
			-75.00		3.8568E-03
			-70.00		4.1784E-03
			-65.00		3.7606E-03
			-60.00		4.4031E-03
			-55.00		4.1125E-03
			-50.00		4.3328E-03
			-45.00		5.0145E-03
			-40.00		5.5761E-03
			-35.00		5.0480E-03
			-30.00		5.2206E-03
			-25.00		4.9446E-03
			-20.00		5.3797E-03
			-15.00		5.3797E-03
			-10.00		4.7683E-03
			-5.00		5.8657E-03
			0.00		5.9920E-03
			5.00		5.7357E-03
			10.00		5.8535E-03
			15.00		5.3635E-03
			20.00		5.1145E-03
			25.00		5.2211E-03
			30.00		5.7008E-03
			35.00		5.4300E-03
			40.00		5.4415E-03
			45.00		5.0077E-03
			50.00		4.7160E-03
			55.00		5.2145E-03
			60.00		4.6076E-03
			65.00		4.2417E-03
			70.00		4.2452E-03
			75.00		4.0344E-03
			80.00		3.7698E-03
			85.00		3.8550E-03
			90.00		3.5756E-03
			95.00		3.4528E-03
			100.00		3.7769E-03
			105.00		2.6662E-03
			110.00		3.1424E-03
			115.00		2.9863E-03
			120.00		2.5619E-03
			125.00		1.7462E-03
			130.00		2.0815E-03
		END_DATA
	END_SCAN  14
	BEGIN_SCAN  15
		TASK_NAME=MODE_INTERVAL
		PROGRAM=BeamAdjust 1.2
		MEAS_DATE=07-Oct-2010 14:19:35
		LINAC=A4
		MODALITY=X
		INPLANE_AXIS_DIR=TARGET_GUN
		CROSSPLANE_AXIS_DIR=LEFT_RIGHT
		DEPTH_AXIS_DIR=UP_DOWN
		ENERGY=6.00
		SSD=950.00
		WEDGE=None
		FIELD_INPLANE=100.00
		FIELD_CROSSPLANE=100.00
		FIELD_TYPE=RECTANGULAR
		GANTRY=0.00
		GANTRY_UPRIGHT_POSITION=0
		GANTRY_ROTATION=CW
		COLL_ANGLE=90.00
		COLL_OFFSET_INPLANE=0.00
		COLL_OFFSET_CROSSPLANE=0.00
		SCAN_DEVICE=STARCHECK
		ELECTROMETER=2D_ARRAY_INTERFACE
		DETECTOR=STARCHECK
		SCAN_CURVETYPE=INPLANE_PROFILE
		SCAN_DEPTH=0.00
		SCAN_OFFAXIS_CROSSPLANE=0.00
		SCAN_ANGLE=0.00
		SCAN_DIAGONAL=FIRST_DIAGONAL
		MEAS_PRESET=TIME_PRESET
		MEAS_TIME=10.000
		MEAS_UNIT=GY
		PRESSURE=1013.25
		TEMPERATURE=20.00
		NORM_TEMPERATURE=20.00
		CORRECTION_FACTOR=1.0000
		CORRECTIONS=AIR_DENSITY_CORR;
		BEGIN_DATA
			-172.40		2.5141E-03
			-169.40		2.7241E-03
			-166.40		3.9354E-03
			-163.40		3.9615E-03
			-160.40		4.1235E-03
			-157.40		3.8546E-03
			-154.40		3.7174E-03
			-151.40		3.7372E-03
			-148.40		5.2327E-03
			-145.40		5.6200E-03
			-142.40		5.8007E-03
			-139.40		5.5018E-03
			-136.40		5.8203E-03
			-133.40		7.0535E-03
			-130.40		7.7117E-03
			-127.40		7.3497E-03
			-124.40		7.6911E-03
			-121.40		8.8057E-03
			-118.40		10.095E-03
			-115.40		10.877E-03
			-112.40		11.315E-03
			-109.40		12.642E-03
			-106.40		14.202E-03
			-103.40		14.485E-03
			-100.40		15.643E-03
			-97.40		17.881E-03
			-94.40		20.128E-03
			-91.40		22.321E-03
			-88.40		24.992E-03
			-85.40		27.745E-03
			-82.40		32.597E-03
			-79.40		39.066E-03
			-76.40		51.859E-03
			-73.40		90.347E-03
			-70.40		226.31E-03
			-67.40		439.98E-03
			-64.40		563.97E-03
			-61.40		607.24E-03
			-58.40		626.51E-03
			-55.40		637.78E-03
			-52.40		644.31E-03
			-49.40		649.32E-03
			-46.40		651.99E-03
			-43.40		654.73E-03
			-40.40		657.76E-03
			-37.40		662.22E-03
			-34.40		661.61E-03
			-31.40		663.56E-03
			-28.40		662.30E-03
			-25.40		665.06E-03
			-22.40		665.14E-03
			-19.40		665.76E-03
			-16.40		669.59E-03
			-13.40		672.08E-03
			0.00		667.91E-03
			13.40		672.31E-03
			16.40		668.02E-03
			19.40		667.66E-03
			22.40		666.33E-03
			25.40		665.39E-03
			28.40		664.20E-03
			31.40		661.92E-03
			34.40		658.82E-03
			37.40		661.18E-03
			40.40		658.53E-03
			43.40		654.94E-03
			46.40		653.20E-03
			49.40		647.45E-03
			52.40		642.67E-03
			55.40		629.80E-03
			58.40		614.94E-03
			61.40		581.96E-03
			64.40		489.10E-03
			67.40		305.80E-03
			70.40		129.75E-03
			73.40		63.408E-03
			76.40		43.722E-03
			79.40		35.383E-03
			82.40		30.340E-03
			85.40		25.614E-03
			88.40		23.529E-03
			91.40		20.781E-03
			94.40		19.151E-03
			97.40		17.171E-03
			100.40		15.303E-03
			103.40		14.438E-03
			106.40		13.178E-03
			109.40		11.974E-03
			112.40		10.177E-03
			115.40		9.6695E-03
			118.40		8.9240E-03
			121.40		8.7097E-03
			124.40		8.4017E-03
			127.40		7.1135E-03
			130.40		6.9934E-03
			133.40		6.0626E-03
			136.40		5.5451E-03
			139.40		5.1593E-03
			142.40		4.5316E-03
			145.40		4.1680E-03
			148.40		4.2213E-03
			151.40		3.8023E-03
			154.40		4.0166E-03
			157.40		3.4598E-03
			160.40		2.3881E-03
			163.40		2.3401E-03
			166.40		3.2261E-03
			169.40		2.5938E-03
			172.40		2.5131E-03
		END_DATA
	END_SCAN  15
	BEGIN_SCAN  16
		TASK_NAME=MODE_INTERVAL
		PROGRAM=BeamAdjust 1.2
		MEAS_DATE=07-Oct-2010 14:19:35
		LINAC=A4
		MODALITY=X
		INPLANE_AXIS_DIR=GUN_TARGET
		CROSSPLANE_AXIS_DIR=LEFT_RIGHT
		DEPTH_AXIS_DIR=UP_DOWN
		ENERGY=6.00
		SSD=950.00
		WEDGE=None
		FIELD_INPLANE=100.00
		FIELD_CROSSPLANE=100.00
		FIELD_TYPE=RECTANGULAR
		GANTRY=0.00
		GANTRY_UPRIGHT_POSITION=0
		GANTRY_ROTATION=CW
		COLL_ANGLE=90.00
		COLL_OFFSET_INPLANE=0.00
		COLL_OFFSET_CROSSPLANE=0.00
		SCAN_DEVICE=STARCHECK
		ELECTROMETER=2D_ARRAY_INTERFACE
		DETECTOR=STARCHECK
		SCAN_CURVETYPE=INPLANE_PROFILE
		SCAN_DEPTH=0.00
		SCAN_OFFAXIS_CROSSPLANE=0.00
		SCAN_ANGLE=0.00
		SCAN_DIAGONAL=SECOND_DIAGONAL
		MEAS_PRESET=TIME_PRESET
		MEAS_TIME=10.000
		MEAS_UNIT=GY
		PRESSURE=1013.25
		TEMPERATURE=20.00
		NORM_TEMPERATURE=20.00
		CORRECTION_FACTOR=1.0000
		CORRECTIONS=AIR_DENSITY_CORR;
		BEGIN_DATA
			-172.40		2.4176E-03
			-169.40		2.6664E-03
			-166.40		2.8339E-03
			-163.40		3.1427E-03
			-160.40		3.1125E-03
			-157.40		3.7608E-03
			-154.40		3.8165E-03
			-151.40		4.3049E-03
			-148.40		4.6452E-03
			-145.40		4.2714E-03
			-142.40		4.9797E-03
			-139.40		5.2443E-03
			-136.40		5.8711E-03
			-133.40		6.4574E-03
			-130.40		6.7377E-03
			-127.40		7.5163E-03
			-124.40		8.3438E-03
			-121.40		8.9659E-03
			-118.40		9.7052E-03
			-115.40		10.671E-03
			-112.40		10.582E-03
			-109.40		11.774E-03
			-106.40		13.344E-03
			-103.40		14.768E-03
			-100.40		16.395E-03
			-97.40		17.516E-03
			-94.40		18.697E-03
			-91.40		21.339E-03
			-88.40		23.348E-03
			-85.40		26.858E-03
			-82.40		30.798E-03
			-79.40		36.581E-03
			-76.40		47.138E-03
			-73.40		75.304E-03
			-70.40		176.96E-03
			-67.40		388.65E-03
			-64.40		546.79E-03
			-61.40		603.92E-03
			-58.40		628.90E-03
			-55.40		639.97E-03
			-52.40		650.59E-03
			-49.40		655.09E-03
			-46.40		658.23E-03
			-43.40		661.27E-03
			-40.40		662.93E-03
			-37.40		666.06E-03
			-34.40		665.43E-03
			-31.40		666.80E-03
			-28.40		669.12E-03
			-25.40		667.53E-03
			-22.40		665.44E-03
			-19.40		668.83E-03
			-16.40		670.98E-03
			-13.40		673.71E-03
			0.00		667.91E-03
			13.40		671.47E-03
			16.40		668.32E-03
			19.40		665.05E-03
			22.40		662.61E-03
			25.40		662.30E-03
			28.40		661.11E-03
			31.40		659.72E-03
			34.40		656.82E-03
			37.40		656.02E-03
			40.40		654.22E-03
			43.40		652.22E-03
			46.40		650.03E-03
			49.40		646.29E-03
			52.40		637.76E-03
			55.40		628.39E-03
			58.40		616.41E-03
			61.40		586.71E-03
			64.40		508.68E-03
			67.40		332.45E-03
			70.40		143.43E-03
			73.40		66.567E-03
			76.40		44.770E-03
			79.40		35.645E-03
			82.40		30.796E-03
			85.40		26.944E-03
			88.40		23.832E-03
			91.40		21.524E-03
			94.40		19.349E-03
			97.40		17.843E-03
			100.40		15.377E-03
			103.40		14.013E-03
			106.40		13.253E-03
			109.40		11.867E-03
			112.40		10.885E-03
			115.40		10.389E-03
			118.40		9.3629E-03
			121.40		8.6050E-03
			124.40		7.8567E-03
			127.40		7.1710E-03
			130.40		7.2785E-03
			133.40		6.4925E-03
			136.40		5.7078E-03
			139.40		6.0449E-03
			142.40		5.5279E-03
			145.40		5.3773E-03
			148.40		4.7509E-03
			151.40		3.9621E-03
			154.40		3.9133E-03
			157.40		4.2048E-03
			160.40		3.6023E-03
			163.40		4.1122E-03
			166.40		3.7638E-03
			169.40		2.4398E-03
			172.40		2.1654E-03
		END_DATA
	END_SCAN  16
END_SCAN_DATA
