BEGIN_SCAN_DATA
	FORMAT=CC-Export V1.9                  
	FILE_CREATION_DATE=07-Oct-2010 14:20:08
	LAST_MODIFIED=07-Oct-2010 14:20:08
	BEGIN_SCAN  1
		TASK_NAME=MODE_INTERVAL
		PROGRAM=BeamAdjust 1.2
		MEAS_DATE=07-Oct-2010 14:20:08
		LINAC=A4
		MODALITY=X
		INPLANE_AXIS_DIR=TARGET_GUN
		CROSSPLANE_AXIS_DIR=LEFT_RIGHT
		DEPTH_AXIS_DIR=UP_DOWN
		ENERGY=6.00
		SSD=950.00
		WEDGE=None
		FIELD_INPLANE=100.00
		FIELD_CROSSPLANE=100.00
		FIELD_TYPE=RECTANGULAR
		GANTRY=0.00
		GANTRY_UPRIGHT_POSITION=0
		GANTRY_ROTATION=CW
		COLL_ANGLE=90.00
		COLL_OFFSET_INPLANE=0.00
		COLL_OFFSET_CROSSPLANE=0.00
		SCAN_DEVICE=STARCHECK
		ELECTROMETER=2D_ARRAY_INTERFACE
		DETECTOR=STARCHECK
		SCAN_CURVETYPE=CROSSPLANE_PROFILE
		SCAN_DEPTH=0.00
		SCAN_OFFAXIS_INPLANE=-130.00
		SCAN_ANGLE=0.00
		SCAN_DIAGONAL=NOT_DIAGONAL
		MEAS_PRESET=TIME_PRESET
		MEAS_TIME=10.000
		MEAS_UNIT=GY
		PRESSURE=1013.25
		TEMPERATURE=20.00
		NORM_TEMPERATURE=20.00
		CORRECTION_FACTOR=1.0000
		CORRECTIONS=AIR_DENSITY_CORR;
		BEGIN_DATA
			-130.00		2.4525E-03
			-80.00		4.1268E-03
			-40.00		7.1049E-03
			40.00		6.7986E-03
			80.00		3.7474E-03
			130.00		1.7564E-03
		END_DATA
	END_SCAN  1
	BEGIN_SCAN  2
		TASK_NAME=MODE_INTERVAL
		PROGRAM=BeamAdjust 1.2
		MEAS_DATE=07-Oct-2010 14:20:08
		LINAC=A4
		MODALITY=X
		INPLANE_AXIS_DIR=TARGET_GUN
		CROSSPLANE_AXIS_DIR=LEFT_RIGHT
		DEPTH_AXIS_DIR=UP_DOWN
		ENERGY=6.00
		SSD=950.00
		WEDGE=None
		FIELD_INPLANE=100.00
		FIELD_CROSSPLANE=100.00
		FIELD_TYPE=RECTANGULAR
		GANTRY=0.00
		GANTRY_UPRIGHT_POSITION=0
		GANTRY_ROTATION=CW
		COLL_ANGLE=90.00
		COLL_OFFSET_INPLANE=0.00
		COLL_OFFSET_CROSSPLANE=0.00
		SCAN_DEVICE=STARCHECK
		ELECTROMETER=2D_ARRAY_INTERFACE
		DETECTOR=STARCHECK
		SCAN_CURVETYPE=CROSSPLANE_PROFILE
		SCAN_DEPTH=0.00
		SCAN_OFFAXIS_INPLANE=-100.00
		SCAN_ANGLE=0.00
		SCAN_DIAGONAL=NOT_DIAGONAL
		MEAS_PRESET=TIME_PRESET
		MEAS_TIME=10.000
		MEAS_UNIT=GY
		PRESSURE=1013.25
		TEMPERATURE=20.00
		NORM_TEMPERATURE=20.00
		CORRECTION_FACTOR=1.0000
		CORRECTIONS=AIR_DENSITY_CORR;
		BEGIN_DATA
			-60.00		10.199E-03
			-30.00		14.109E-03
			30.00		14.951E-03
			60.00		9.9402E-03
		END_DATA
	END_SCAN  2
	BEGIN_SCAN  3
		TASK_NAME=MODE_INTERVAL
		PROGRAM=BeamAdjust 1.2
		MEAS_DATE=07-Oct-2010 14:20:08
		LINAC=A4
		MODALITY=X
		INPLANE_AXIS_DIR=TARGET_GUN
		CROSSPLANE_AXIS_DIR=LEFT_RIGHT
		DEPTH_AXIS_DIR=UP_DOWN
		ENERGY=6.00
		SSD=950.00
		WEDGE=None
		FIELD_INPLANE=100.00
		FIELD_CROSSPLANE=100.00
		FIELD_TYPE=RECTANGULAR
		GANTRY=0.00
		GANTRY_UPRIGHT_POSITION=0
		GANTRY_ROTATION=CW
		COLL_ANGLE=90.00
		COLL_OFFSET_INPLANE=0.00
		COLL_OFFSET_CROSSPLANE=0.00
		SCAN_DEVICE=STARCHECK
		ELECTROMETER=2D_ARRAY_INTERFACE
		DETECTOR=STARCHECK
		SCAN_CURVETYPE=CROSSPLANE_PROFILE
		SCAN_DEPTH=0.00
		SCAN_OFFAXIS_INPLANE=-50.00
		SCAN_ANGLE=0.00
		SCAN_DIAGONAL=NOT_DIAGONAL
		MEAS_PRESET=TIME_PRESET
		MEAS_TIME=10.000
		MEAS_UNIT=GY
		PRESSURE=1013.25
		TEMPERATURE=20.00
		NORM_TEMPERATURE=20.00
		CORRECTION_FACTOR=1.0000
		CORRECTIONS=AIR_DENSITY_CORR;
		BEGIN_DATA
			-30.00		369.97E-03
			-15.00		330.04E-03
			15.00		356.90E-03
			30.00		367.24E-03
		END_DATA
	END_SCAN  3
	BEGIN_SCAN  4
		TASK_NAME=MODE_INTERVAL
		PROGRAM=BeamAdjust 1.2
		MEAS_DATE=07-Oct-2010 14:20:08
		LINAC=A4
		MODALITY=X
		INPLANE_AXIS_DIR=TARGET_GUN
		CROSSPLANE_AXIS_DIR=LEFT_RIGHT
		DEPTH_AXIS_DIR=UP_DOWN
		ENERGY=6.00
		SSD=950.00
		WEDGE=None
		FIELD_INPLANE=100.00
		FIELD_CROSSPLANE=100.00
		FIELD_TYPE=RECTANGULAR
		GANTRY=0.00
		GANTRY_UPRIGHT_POSITION=0
		GANTRY_ROTATION=CW
		COLL_ANGLE=90.00
		COLL_OFFSET_INPLANE=0.00
		COLL_OFFSET_CROSSPLANE=0.00
		SCAN_DEVICE=STARCHECK
		ELECTROMETER=2D_ARRAY_INTERFACE
		DETECTOR=STARCHECK
		SCAN_CURVETYPE=CROSSPLANE_PROFILE
		SCAN_DEPTH=0.00
		SCAN_OFFAXIS_INPLANE=0.00
		SCAN_ANGLE=0.00
		SCAN_DIAGONAL=NOT_DIAGONAL
		MEAS_PRESET=TIME_PRESET
		MEAS_TIME=10.000
		MEAS_UNIT=GY
		PRESSURE=1013.25
		TEMPERATURE=20.00
		NORM_TEMPERATURE=20.00
		CORRECTION_FACTOR=1.0000
		CORRECTIONS=AIR_DENSITY_CORR;
		BEGIN_DATA
			-126.00		6.7662E-03
			-123.00		7.6504E-03
			-120.00		7.6608E-03
			-117.00		8.4681E-03
			-114.00		8.9951E-03
			-111.00		9.5712E-03
			-108.00		10.398E-03
			-105.00		10.950E-03
			-102.00		12.568E-03
			-99.00		13.102E-03
			-96.00		14.064E-03
			-93.00		15.375E-03
			-90.00		16.675E-03
			-87.00		17.933E-03
			-84.00		20.303E-03
			-81.00		22.064E-03
			-78.00		24.183E-03
			-75.00		27.192E-03
			-72.00		29.801E-03
			-69.00		33.975E-03
			-66.00		39.346E-03
			-63.00		45.474E-03
			-60.00		55.597E-03
			-57.00		72.518E-03
			-54.00		113.96E-03
			-51.00		291.16E-03
			-48.00		555.82E-03
			-45.00		617.64E-03
			-42.00		637.09E-03
			-39.00		649.54E-03
			-36.00		655.44E-03
			-33.00		656.10E-03
			-30.00		657.98E-03
			-27.00		660.35E-03
			-24.00		662.90E-03
			-21.00		662.77E-03
			-18.00		669.17E-03
			-15.00		669.20E-03
			-12.00		668.35E-03
			-9.00		670.69E-03
			-6.00		669.57E-03
			0.00		669.14E-03
			6.00		672.26E-03
			9.00		671.55E-03
			12.00		669.15E-03
			15.00		668.15E-03
			18.00		667.35E-03
			21.00		665.69E-03
			24.00		662.49E-03
			27.00		666.13E-03
			30.00		664.36E-03
			33.00		662.54E-03
			36.00		658.66E-03
			39.00		652.61E-03
			42.00		640.98E-03
			45.00		615.97E-03
			48.00		527.14E-03
			51.00		232.91E-03
			54.00		102.03E-03
			57.00		68.212E-03
			60.00		53.027E-03
			63.00		44.379E-03
			66.00		37.756E-03
			69.00		32.674E-03
			72.00		29.637E-03
			75.00		26.915E-03
			78.00		23.587E-03
			81.00		21.351E-03
			84.00		19.753E-03
			87.00		17.774E-03
			90.00		16.889E-03
			93.00		14.826E-03
			96.00		13.319E-03
			99.00		12.745E-03
			102.00		11.845E-03
			105.00		10.862E-03
			108.00		10.428E-03
			111.00		9.2256E-03
			114.00		9.0937E-03
			117.00		7.9666E-03
			120.00		7.2676E-03
			123.00		7.1190E-03
			126.00		7.0279E-03
		END_DATA
	END_SCAN  4
	BEGIN_SCAN  5
		TASK_NAME=MODE_INTERVAL
		PROGRAM=BeamAdjust 1.2
		MEAS_DATE=07-Oct-2010 14:20:08
		LINAC=A4
		MODALITY=X
		INPLANE_AXIS_DIR=TARGET_GUN
		CROSSPLANE_AXIS_DIR=LEFT_RIGHT
		DEPTH_AXIS_DIR=UP_DOWN
		ENERGY=6.00
		SSD=950.00
		WEDGE=None
		FIELD_INPLANE=100.00
		FIELD_CROSSPLANE=100.00
		FIELD_TYPE=RECTANGULAR
		GANTRY=0.00
		GANTRY_UPRIGHT_POSITION=0
		GANTRY_ROTATION=CW
		COLL_ANGLE=90.00
		COLL_OFFSET_INPLANE=0.00
		COLL_OFFSET_CROSSPLANE=0.00
		SCAN_DEVICE=STARCHECK
		ELECTROMETER=2D_ARRAY_INTERFACE
		DETECTOR=STARCHECK
		SCAN_CURVETYPE=CROSSPLANE_PROFILE
		SCAN_DEPTH=0.00
		SCAN_OFFAXIS_INPLANE=50.00
		SCAN_ANGLE=0.00
		SCAN_DIAGONAL=NOT_DIAGONAL
		MEAS_PRESET=TIME_PRESET
		MEAS_TIME=10.000
		MEAS_UNIT=GY
		PRESSURE=1013.25
		TEMPERATURE=20.00
		NORM_TEMPERATURE=20.00
		CORRECTION_FACTOR=1.0000
		CORRECTIONS=AIR_DENSITY_CORR;
		BEGIN_DATA
			-30.00		295.92E-03
			-15.00		309.56E-03
			15.00		278.18E-03
			30.00		284.77E-03
		END_DATA
	END_SCAN  5
	BEGIN_SCAN  6
		TASK_NAME=MODE_INTERVAL
		PROGRAM=BeamAdjust 1.2
		MEAS_DATE=07-Oct-2010 14:20:08
		LINAC=A4
		MODALITY=X
		INPLANE_AXIS_DIR=TARGET_GUN
		CROSSPLANE_AXIS_DIR=LEFT_RIGHT
		DEPTH_AXIS_DIR=UP_DOWN
		ENERGY=6.00
		SSD=950.00
		WEDGE=None
		FIELD_INPLANE=100.00
		FIELD_CROSSPLANE=100.00
		FIELD_TYPE=RECTANGULAR
		GANTRY=0.00
		GANTRY_UPRIGHT_POSITION=0
		GANTRY_ROTATION=CW
		COLL_ANGLE=90.00
		COLL_OFFSET_INPLANE=0.00
		COLL_OFFSET_CROSSPLANE=0.00
		SCAN_DEVICE=STARCHECK
		ELECTROMETER=2D_ARRAY_INTERFACE
		DETECTOR=STARCHECK
		SCAN_CURVETYPE=CROSSPLANE_PROFILE
		SCAN_DEPTH=0.00
		SCAN_OFFAXIS_INPLANE=100.00
		SCAN_ANGLE=0.00
		SCAN_DIAGONAL=NOT_DIAGONAL
		MEAS_PRESET=TIME_PRESET
		MEAS_TIME=10.000
		MEAS_UNIT=GY
		PRESSURE=1013.25
		TEMPERATURE=20.00
		NORM_TEMPERATURE=20.00
		CORRECTION_FACTOR=1.0000
		CORRECTIONS=AIR_DENSITY_CORR;
		BEGIN_DATA
			-60.00		9.9988E-03
			-30.00		14.915E-03
			30.00		15.090E-03
			60.00		8.8660E-03
		END_DATA
	END_SCAN  6
	BEGIN_SCAN  7
		TASK_NAME=MODE_INTERVAL
		PROGRAM=BeamAdjust 1.2
		MEAS_DATE=07-Oct-2010 14:20:08
		LINAC=A4
		MODALITY=X
		INPLANE_AXIS_DIR=TARGET_GUN
		CROSSPLANE_AXIS_DIR=LEFT_RIGHT
		DEPTH_AXIS_DIR=UP_DOWN
		ENERGY=6.00
		SSD=950.00
		WEDGE=None
		FIELD_INPLANE=100.00
		FIELD_CROSSPLANE=100.00
		FIELD_TYPE=RECTANGULAR
		GANTRY=0.00
		GANTRY_UPRIGHT_POSITION=0
		GANTRY_ROTATION=CW
		COLL_ANGLE=90.00
		COLL_OFFSET_INPLANE=0.00
		COLL_OFFSET_CROSSPLANE=0.00
		SCAN_DEVICE=STARCHECK
		ELECTROMETER=2D_ARRAY_INTERFACE
		DETECTOR=STARCHECK
		SCAN_CURVETYPE=CROSSPLANE_PROFILE
		SCAN_DEPTH=0.00
		SCAN_OFFAXIS_INPLANE=130.00
		SCAN_ANGLE=0.00
		SCAN_DIAGONAL=NOT_DIAGONAL
		MEAS_PRESET=TIME_PRESET
		MEAS_TIME=10.000
		MEAS_UNIT=GY
		PRESSURE=1013.25
		TEMPERATURE=20.00
		NORM_TEMPERATURE=20.00
		CORRECTION_FACTOR=1.0000
		CORRECTIONS=AIR_DENSITY_CORR;
		BEGIN_DATA
			-130.00		1.6906E-03
			-80.00		4.1106E-03
			-40.00		7.7521E-03
			40.00		7.6431E-03
			80.00		3.9346E-03
			130.00		2.2101E-03
		END_DATA
	END_SCAN  7
	BEGIN_SCAN  8
		TASK_NAME=MODE_INTERVAL
		PROGRAM=BeamAdjust 1.2
		MEAS_DATE=07-Oct-2010 14:20:08
		LINAC=A4
		MODALITY=X
		INPLANE_AXIS_DIR=TARGET_GUN
		CROSSPLANE_AXIS_DIR=LEFT_RIGHT
		DEPTH_AXIS_DIR=UP_DOWN
		ENERGY=6.00
		SSD=950.00
		WEDGE=None
		FIELD_INPLANE=100.00
		FIELD_CROSSPLANE=100.00
		FIELD_TYPE=RECTANGULAR
		GANTRY=0.00
		GANTRY_UPRIGHT_POSITION=0
		GANTRY_ROTATION=CW
		COLL_ANGLE=90.00
		COLL_OFFSET_INPLANE=0.00
		COLL_OFFSET_CROSSPLANE=0.00
		SCAN_DEVICE=STARCHECK
		ELECTROMETER=2D_ARRAY_INTERFACE
		DETECTOR=STARCHECK
		SCAN_CURVETYPE=INPLANE_PROFILE
		SCAN_DEPTH=0.00
		SCAN_OFFAXIS_CROSSPLANE=-130.00
		SCAN_ANGLE=0.00
		SCAN_DIAGONAL=NOT_DIAGONAL
		MEAS_PRESET=TIME_PRESET
		MEAS_TIME=10.000
		MEAS_UNIT=GY
		PRESSURE=1013.25
		TEMPERATURE=20.00
		NORM_TEMPERATURE=20.00
		CORRECTION_FACTOR=1.0000
		CORRECTIONS=AIR_DENSITY_CORR;
		BEGIN_DATA
			-130.00		2.4525E-03
			-125.00		2.7317E-03
			-120.00		3.1438E-03
			-115.00		3.6452E-03
			-110.00		2.9812E-03
			-105.00		3.4207E-03
			-100.00		4.1194E-03
			-95.00		4.5357E-03
			-90.00		4.4305E-03
			-85.00		4.2538E-03
			-80.00		4.3202E-03
			-75.00		4.8908E-03
			-70.00		4.7710E-03
			-65.00		4.7978E-03
			-60.00		5.1248E-03
			-55.00		6.0193E-03
			-50.00		4.3575E-03
			-45.00		5.1005E-03
			-40.00		4.7572E-03
			-35.00		5.4381E-03
			-30.00		5.4398E-03
			-25.00		5.1134E-03
			-20.00		5.0499E-03
			-15.00		5.1078E-03
			-10.00		5.3614E-03
			-5.00		6.0611E-03
			0.00		5.8686E-03
			5.00		6.4765E-03
			10.00		5.7559E-03
			15.00		5.4395E-03
			20.00		5.7531E-03
			25.00		5.8204E-03
			30.00		5.7961E-03
			35.00		5.3973E-03
			40.00		4.6768E-03
			45.00		4.4720E-03
			50.00		4.9477E-03
			55.00		4.2848E-03
			60.00		4.3446E-03
			65.00		4.1541E-03
			70.00		4.2435E-03
			75.00		3.7087E-03
			80.00		3.2358E-03
			85.00		3.5935E-03
			90.00		3.4089E-03
			95.00		3.8564E-03
			100.00		2.7576E-03
			105.00		2.3410E-03
			110.00		2.8572E-03
			115.00		2.3500E-03
			120.00		2.3951E-03
			125.00		2.1340E-03
			130.00		1.6906E-03
		END_DATA
	END_SCAN  8
	BEGIN_SCAN  9
		TASK_NAME=MODE_INTERVAL
		PROGRAM=BeamAdjust 1.2
		MEAS_DATE=07-Oct-2010 14:20:08
		LINAC=A4
		MODALITY=X
		INPLANE_AXIS_DIR=TARGET_GUN
		CROSSPLANE_AXIS_DIR=LEFT_RIGHT
		DEPTH_AXIS_DIR=UP_DOWN
		ENERGY=6.00
		SSD=950.00
		WEDGE=None
		FIELD_INPLANE=100.00
		FIELD_CROSSPLANE=100.00
		FIELD_TYPE=RECTANGULAR
		GANTRY=0.00
		GANTRY_UPRIGHT_POSITION=0
		GANTRY_ROTATION=CW
		COLL_ANGLE=90.00
		COLL_OFFSET_INPLANE=0.00
		COLL_OFFSET_CROSSPLANE=0.00
		SCAN_DEVICE=STARCHECK
		ELECTROMETER=2D_ARRAY_INTERFACE
		DETECTOR=STARCHECK
		SCAN_CURVETYPE=INPLANE_PROFILE
		SCAN_DEPTH=0.00
		SCAN_OFFAXIS_CROSSPLANE=-100.00
		SCAN_ANGLE=0.00
		SCAN_DIAGONAL=NOT_DIAGONAL
		MEAS_PRESET=TIME_PRESET
		MEAS_TIME=10.000
		MEAS_UNIT=GY
		PRESSURE=1013.25
		TEMPERATURE=20.00
		NORM_TEMPERATURE=20.00
		CORRECTION_FACTOR=1.0000
		CORRECTIONS=AIR_DENSITY_CORR;
		BEGIN_DATA
			-60.00		8.4261E-03
			-30.00		10.509E-03
			30.00		10.208E-03
			60.00		7.9721E-03
		END_DATA
	END_SCAN  9
	BEGIN_SCAN  10
		TASK_NAME=MODE_INTERVAL
		PROGRAM=BeamAdjust 1.2
		MEAS_DATE=07-Oct-2010 14:20:08
		LINAC=A4
		MODALITY=X
		INPLANE_AXIS_DIR=TARGET_GUN
		CROSSPLANE_AXIS_DIR=LEFT_RIGHT
		DEPTH_AXIS_DIR=UP_DOWN
		ENERGY=6.00
		SSD=950.00
		WEDGE=None
		FIELD_INPLANE=100.00
		FIELD_CROSSPLANE=100.00
		FIELD_TYPE=RECTANGULAR
		GANTRY=0.00
		GANTRY_UPRIGHT_POSITION=0
		GANTRY_ROTATION=CW
		COLL_ANGLE=90.00
		COLL_OFFSET_INPLANE=0.00
		COLL_OFFSET_CROSSPLANE=0.00
		SCAN_DEVICE=STARCHECK
		ELECTROMETER=2D_ARRAY_INTERFACE
		DETECTOR=STARCHECK
		SCAN_CURVETYPE=INPLANE_PROFILE
		SCAN_DEPTH=0.00
		SCAN_OFFAXIS_CROSSPLANE=-50.00
		SCAN_ANGLE=0.00
		SCAN_DIAGONAL=NOT_DIAGONAL
		MEAS_PRESET=TIME_PRESET
		MEAS_TIME=10.000
		MEAS_UNIT=GY
		PRESSURE=1013.25
		TEMPERATURE=20.00
		NORM_TEMPERATURE=20.00
		CORRECTION_FACTOR=1.0000
		CORRECTIONS=AIR_DENSITY_CORR;
		BEGIN_DATA
			-30.00		397.25E-03
			-15.00		394.30E-03
			15.00		384.27E-03
			30.00		373.34E-03
		END_DATA
	END_SCAN  10
	BEGIN_SCAN  11
		TASK_NAME=MODE_INTERVAL
		PROGRAM=BeamAdjust 1.2
		MEAS_DATE=07-Oct-2010 14:20:08
		LINAC=A4
		MODALITY=X
		INPLANE_AXIS_DIR=TARGET_GUN
		CROSSPLANE_AXIS_DIR=LEFT_RIGHT
		DEPTH_AXIS_DIR=UP_DOWN
		ENERGY=6.00
		SSD=950.00
		WEDGE=None
		FIELD_INPLANE=100.00
		FIELD_CROSSPLANE=100.00
		FIELD_TYPE=RECTANGULAR
		GANTRY=0.00
		GANTRY_UPRIGHT_POSITION=0
		GANTRY_ROTATION=CW
		COLL_ANGLE=90.00
		COLL_OFFSET_INPLANE=0.00
		COLL_OFFSET_CROSSPLANE=0.00
		SCAN_DEVICE=STARCHECK
		ELECTROMETER=2D_ARRAY_INTERFACE
		DETECTOR=STARCHECK
		SCAN_CURVETYPE=INPLANE_PROFILE
		SCAN_DEPTH=0.00
		SCAN_OFFAXIS_CROSSPLANE=0.00
		SCAN_ANGLE=0.00
		SCAN_DIAGONAL=NOT_DIAGONAL
		MEAS_PRESET=TIME_PRESET
		MEAS_TIME=10.000
		MEAS_UNIT=GY
		PRESSURE=1013.25
		TEMPERATURE=20.00
		NORM_TEMPERATURE=20.00
		CORRECTION_FACTOR=1.0000
		CORRECTIONS=AIR_DENSITY_CORR;
		BEGIN_DATA
			-126.00		8.9844E-03
			-123.00		8.7204E-03
			-120.00		10.185E-03
			-117.00		11.532E-03
			-114.00		11.964E-03
			-111.00		12.506E-03
			-108.00		13.331E-03
			-105.00		14.483E-03
			-102.00		16.487E-03
			-99.00		16.984E-03
			-96.00		17.856E-03
			-93.00		20.102E-03
			-90.00		21.789E-03
			-87.00		23.568E-03
			-84.00		25.364E-03
			-81.00		27.701E-03
			-78.00		30.341E-03
			-75.00		33.311E-03
			-72.00		36.242E-03
			-69.00		39.879E-03
			-66.00		45.134E-03
			-63.00		51.619E-03
			-60.00		61.747E-03
			-57.00		79.868E-03
			-54.00		125.41E-03
			-51.00		278.68E-03
			-48.00		541.39E-03
			-45.00		620.90E-03
			-42.00		642.52E-03
			-39.00		652.31E-03
			-36.00		658.41E-03
			-33.00		661.57E-03
			-30.00		665.79E-03
			-27.00		666.92E-03
			-24.00		666.37E-03
			-21.00		665.18E-03
			-18.00		672.10E-03
			-15.00		670.60E-03
			-12.00		671.82E-03
			-9.00		671.97E-03
			-6.00		669.20E-03
			0.00		669.14E-03
			6.00		673.50E-03
			9.00		672.66E-03
			12.00		672.19E-03
			15.00		669.60E-03
			18.00		665.54E-03
			21.00		665.28E-03
			24.00		661.89E-03
			27.00		663.34E-03
			30.00		659.43E-03
			33.00		657.73E-03
			36.00		654.69E-03
			39.00		643.50E-03
			42.00		632.89E-03
			45.00		603.06E-03
			48.00		459.81E-03
			51.00		203.97E-03
			54.00		102.88E-03
			57.00		71.424E-03
			60.00		57.501E-03
			63.00		48.797E-03
			66.00		43.416E-03
			69.00		38.936E-03
			72.00		34.934E-03
			75.00		31.565E-03
			78.00		27.936E-03
			81.00		26.363E-03
			84.00		24.388E-03
			87.00		22.087E-03
			90.00		20.397E-03
			93.00		19.276E-03
			96.00		17.754E-03
			99.00		15.983E-03
			102.00		14.272E-03
			105.00		13.671E-03
			108.00		13.171E-03
			111.00		11.894E-03
			114.00		11.254E-03
			117.00		10.887E-03
			120.00		9.6457E-03
			123.00		9.0839E-03
			126.00		8.3529E-03
		END_DATA
	END_SCAN  11
	BEGIN_SCAN  12
		TASK_NAME=MODE_INTERVAL
		PROGRAM=BeamAdjust 1.2
		MEAS_DATE=07-Oct-2010 14:20:08
		LINAC=A4
		MODALITY=X
		INPLANE_AXIS_DIR=TARGET_GUN
		CROSSPLANE_AXIS_DIR=LEFT_RIGHT
		DEPTH_AXIS_DIR=UP_DOWN
		ENERGY=6.00
		SSD=950.00
		WEDGE=None
		FIELD_INPLANE=100.00
		FIELD_CROSSPLANE=100.00
		FIELD_TYPE=RECTANGULAR
		GANTRY=0.00
		GANTRY_UPRIGHT_POSITION=0
		GANTRY_ROTATION=CW
		COLL_ANGLE=90.00
		COLL_OFFSET_INPLANE=0.00
		COLL_OFFSET_CROSSPLANE=0.00
		SCAN_DEVICE=STARCHECK
		ELECTROMETER=2D_ARRAY_INTERFACE
		DETECTOR=STARCHECK
		SCAN_CURVETYPE=INPLANE_PROFILE
		SCAN_DEPTH=0.00
		SCAN_OFFAXIS_CROSSPLANE=50.00
		SCAN_ANGLE=0.00
		SCAN_DIAGONAL=NOT_DIAGONAL
		MEAS_PRESET=TIME_PRESET
		MEAS_TIME=10.000
		MEAS_UNIT=GY
		PRESSURE=1013.25
		TEMPERATURE=20.00
		NORM_TEMPERATURE=20.00
		CORRECTION_FACTOR=1.0000
		CORRECTIONS=AIR_DENSITY_CORR;
		BEGIN_DATA
			-30.00		327.92E-03
			-15.00		336.41E-03
			15.00		344.42E-03
			30.00		346.07E-03
		END_DATA
	END_SCAN  12
	BEGIN_SCAN  13
		TASK_NAME=MODE_INTERVAL
		PROGRAM=BeamAdjust 1.2
		MEAS_DATE=07-Oct-2010 14:20:08
		LINAC=A4
		MODALITY=X
		INPLANE_AXIS_DIR=TARGET_GUN
		CROSSPLANE_AXIS_DIR=LEFT_RIGHT
		DEPTH_AXIS_DIR=UP_DOWN
		ENERGY=6.00
		SSD=950.00
		WEDGE=None
		FIELD_INPLANE=100.00
		FIELD_CROSSPLANE=100.00
		FIELD_TYPE=RECTANGULAR
		GANTRY=0.00
		GANTRY_UPRIGHT_POSITION=0
		GANTRY_ROTATION=CW
		COLL_ANGLE=90.00
		COLL_OFFSET_INPLANE=0.00
		COLL_OFFSET_CROSSPLANE=0.00
		SCAN_DEVICE=STARCHECK
		ELECTROMETER=2D_ARRAY_INTERFACE
		DETECTOR=STARCHECK
		SCAN_CURVETYPE=INPLANE_PROFILE
		SCAN_DEPTH=0.00
		SCAN_OFFAXIS_CROSSPLANE=100.00
		SCAN_ANGLE=0.00
		SCAN_DIAGONAL=NOT_DIAGONAL
		MEAS_PRESET=TIME_PRESET
		MEAS_TIME=10.000
		MEAS_UNIT=GY
		PRESSURE=1013.25
		TEMPERATURE=20.00
		NORM_TEMPERATURE=20.00
		CORRECTION_FACTOR=1.0000
		CORRECTIONS=AIR_DENSITY_CORR;
		BEGIN_DATA
			-60.00		7.9799E-03
			-30.00		10.489E-03
			30.00		10.369E-03
			60.00		7.2089E-03
		END_DATA
	END_SCAN  13
	BEGIN_SCAN  14
		TASK_NAME=MODE_INTERVAL
		PROGRAM=BeamAdjust 1.2
		MEAS_DATE=07-Oct-2010 14:20:08
		LINAC=A4
		MODALITY=X
		INPLANE_AXIS_DIR=TARGET_GUN
		CROSSPLANE_AXIS_DIR=LEFT_RIGHT
		DEPTH_AXIS_DIR=UP_DOWN
		ENERGY=6.00
		SSD=950.00
		WEDGE=None
		FIELD_INPLANE=100.00
		FIELD_CROSSPLANE=100.00
		FIELD_TYPE=RECTANGULAR
		GANTRY=0.00
		GANTRY_UPRIGHT_POSITION=0
		GANTRY_ROTATION=CW
		COLL_ANGLE=90.00
		COLL_OFFSET_INPLANE=0.00
		COLL_OFFSET_CROSSPLANE=0.00
		SCAN_DEVICE=STARCHECK
		ELECTROMETER=2D_ARRAY_INTERFACE
		DETECTOR=STARCHECK
		SCAN_CURVETYPE=INPLANE_PROFILE
		SCAN_DEPTH=0.00
		SCAN_OFFAXIS_CROSSPLANE=130.00
		SCAN_ANGLE=0.00
		SCAN_DIAGONAL=NOT_DIAGONAL
		MEAS_PRESET=TIME_PRESET
		MEAS_TIME=10.000
		MEAS_UNIT=GY
		PRESSURE=1013.25
		TEMPERATURE=20.00
		NORM_TEMPERATURE=20.00
		CORRECTION_FACTOR=1.0000
		CORRECTIONS=AIR_DENSITY_CORR;
		BEGIN_DATA
			-130.00		1.7564E-03
			-125.00		2.2599E-03
			-120.00		2.3664E-03
			-115.00		2.6796E-03
			-110.00		2.6076E-03
			-105.00		2.6374E-03
			-100.00		3.3745E-03
			-95.00		2.9126E-03
			-90.00		2.6525E-03
			-85.00		3.7414E-03
			-80.00		3.8273E-03
			-75.00		3.6484E-03
			-70.00		3.5947E-03
			-65.00		3.5481E-03
			-60.00		4.6682E-03
			-55.00		4.4447E-03
			-50.00		4.1379E-03
			-45.00		4.6884E-03
			-40.00		4.9954E-03
			-35.00		5.2048E-03
			-30.00		5.3246E-03
			-25.00		5.1524E-03
			-20.00		5.4994E-03
			-15.00		4.9959E-03
			-10.00		4.4894E-03
			-5.00		5.9422E-03
			0.00		6.2669E-03
			5.00		5.4101E-03
			10.00		5.5704E-03
			15.00		5.3282E-03
			20.00		5.5362E-03
			25.00		5.3471E-03
			30.00		4.9108E-03
			35.00		5.6698E-03
			40.00		5.5092E-03
			45.00		5.0357E-03
			50.00		5.1613E-03
			55.00		5.1659E-03
			60.00		4.5707E-03
			65.00		4.1638E-03
			70.00		4.1053E-03
			75.00		4.2225E-03
			80.00		4.0641E-03
			85.00		3.8565E-03
			90.00		3.4150E-03
			95.00		3.1782E-03
			100.00		3.4917E-03
			105.00		3.3534E-03
			110.00		2.7832E-03
			115.00		2.9539E-03
			120.00		2.5604E-03
			125.00		2.0131E-03
			130.00		2.2101E-03
		END_DATA
	END_SCAN  14
	BEGIN_SCAN  15
		TASK_NAME=MODE_INTERVAL
		PROGRAM=BeamAdjust 1.2
		MEAS_DATE=07-Oct-2010 14:20:08
		LINAC=A4
		MODALITY=X
		INPLANE_AXIS_DIR=TARGET_GUN
		CROSSPLANE_AXIS_DIR=LEFT_RIGHT
		DEPTH_AXIS_DIR=UP_DOWN
		ENERGY=6.00
		SSD=950.00
		WEDGE=None
		FIELD_INPLANE=100.00
		FIELD_CROSSPLANE=100.00
		FIELD_TYPE=RECTANGULAR
		GANTRY=0.00
		GANTRY_UPRIGHT_POSITION=0
		GANTRY_ROTATION=CW
		COLL_ANGLE=90.00
		COLL_OFFSET_INPLANE=0.00
		COLL_OFFSET_CROSSPLANE=0.00
		SCAN_DEVICE=STARCHECK
		ELECTROMETER=2D_ARRAY_INTERFACE
		DETECTOR=STARCHECK
		SCAN_CURVETYPE=INPLANE_PROFILE
		SCAN_DEPTH=0.00
		SCAN_OFFAXIS_CROSSPLANE=0.00
		SCAN_ANGLE=0.00
		SCAN_DIAGONAL=FIRST_DIAGONAL
		MEAS_PRESET=TIME_PRESET
		MEAS_TIME=10.000
		MEAS_UNIT=GY
		PRESSURE=1013.25
		TEMPERATURE=20.00
		NORM_TEMPERATURE=20.00
		CORRECTION_FACTOR=1.0000
		CORRECTIONS=AIR_DENSITY_CORR;
		BEGIN_DATA
			-172.40		2.5578E-03
			-169.40		2.8484E-03
			-166.40		3.9144E-03
			-163.40		3.6509E-03
			-160.40		3.5895E-03
			-157.40		3.8278E-03
			-154.40		4.1381E-03
			-151.40		4.1784E-03
			-148.40		4.7753E-03
			-145.40		5.6781E-03
			-142.40		5.4653E-03
			-139.40		5.8592E-03
			-136.40		6.0348E-03
			-133.40		6.8501E-03
			-130.40		7.1930E-03
			-127.40		7.3778E-03
			-124.40		8.1196E-03
			-121.40		8.9938E-03
			-118.40		9.9299E-03
			-115.40		10.586E-03
			-112.40		11.142E-03
			-109.40		12.469E-03
			-106.40		13.895E-03
			-103.40		14.962E-03
			-100.40		15.595E-03
			-97.40		17.807E-03
			-94.40		19.900E-03
			-91.40		22.161E-03
			-88.40		25.017E-03
			-85.40		27.751E-03
			-82.40		32.144E-03
			-79.40		38.320E-03
			-76.40		50.549E-03
			-73.40		85.850E-03
			-70.40		212.61E-03
			-67.40		426.55E-03
			-64.40		558.99E-03
			-61.40		605.43E-03
			-58.40		625.72E-03
			-55.40		637.42E-03
			-52.40		644.32E-03
			-49.40		649.60E-03
			-46.40		652.13E-03
			-43.40		654.76E-03
			-40.40		657.93E-03
			-37.40		662.60E-03
			-34.40		662.10E-03
			-31.40		663.95E-03
			-28.40		662.38E-03
			-25.40		665.33E-03
			-22.40		665.83E-03
			-19.40		666.84E-03
			-16.40		669.82E-03
			-13.40		672.56E-03
			0.00		669.14E-03
			13.40		673.58E-03
			16.40		669.09E-03
			19.40		668.30E-03
			22.40		667.17E-03
			25.40		666.48E-03
			28.40		665.67E-03
			31.40		662.92E-03
			34.40		659.79E-03
			37.40		662.02E-03
			40.40		659.66E-03
			43.40		656.73E-03
			46.40		655.00E-03
			49.40		648.34E-03
			52.40		643.91E-03
			55.40		631.70E-03
			58.40		617.80E-03
			61.40		587.17E-03
			64.40		502.57E-03
			67.40		323.18E-03
			70.40		138.84E-03
			73.40		65.762E-03
			76.40		44.587E-03
			79.40		35.552E-03
			82.40		30.188E-03
			85.40		26.308E-03
			88.40		24.230E-03
			91.40		20.628E-03
			94.40		18.990E-03
			97.40		17.255E-03
			100.40		15.673E-03
			103.40		14.417E-03
			106.40		13.049E-03
			109.40		12.224E-03
			112.40		10.529E-03
			115.40		9.8553E-03
			118.40		8.5840E-03
			121.40		8.3310E-03
			124.40		8.0426E-03
			127.40		7.6718E-03
			130.40		7.0748E-03
			133.40		5.8419E-03
			136.40		5.4296E-03
			139.40		4.9969E-03
			142.40		4.4459E-03
			145.40		4.2601E-03
			148.40		4.4595E-03
			151.40		3.7219E-03
			154.40		3.8332E-03
			157.40		3.2891E-03
			160.40		2.5824E-03
			163.40		2.4830E-03
			166.40		2.4810E-03
			169.40		2.6533E-03
			172.40		2.6131E-03
		END_DATA
	END_SCAN  15
	BEGIN_SCAN  16
		TASK_NAME=MODE_INTERVAL
		PROGRAM=BeamAdjust 1.2
		MEAS_DATE=07-Oct-2010 14:20:08
		LINAC=A4
		MODALITY=X
		INPLANE_AXIS_DIR=GUN_TARGET
		CROSSPLANE_AXIS_DIR=LEFT_RIGHT
		DEPTH_AXIS_DIR=UP_DOWN
		ENERGY=6.00
		SSD=950.00
		WEDGE=None
		FIELD_INPLANE=100.00
		FIELD_CROSSPLANE=100.00
		FIELD_TYPE=RECTANGULAR
		GANTRY=0.00
		GANTRY_UPRIGHT_POSITION=0
		GANTRY_ROTATION=CW
		COLL_ANGLE=90.00
		COLL_OFFSET_INPLANE=0.00
		COLL_OFFSET_CROSSPLANE=0.00
		SCAN_DEVICE=STARCHECK
		ELECTROMETER=2D_ARRAY_INTERFACE
		DETECTOR=STARCHECK
		SCAN_CURVETYPE=INPLANE_PROFILE
		SCAN_DEPTH=0.00
		SCAN_OFFAXIS_CROSSPLANE=0.00
		SCAN_ANGLE=0.00
		SCAN_DIAGONAL=SECOND_DIAGONAL
		MEAS_PRESET=TIME_PRESET
		MEAS_TIME=10.000
		MEAS_UNIT=GY
		PRESSURE=1013.25
		TEMPERATURE=20.00
		NORM_TEMPERATURE=20.00
		CORRECTION_FACTOR=1.0000
		CORRECTIONS=AIR_DENSITY_CORR;
		BEGIN_DATA
			-172.40		2.5618E-03
			-169.40		2.8859E-03
			-166.40		2.8503E-03
			-163.40		2.9644E-03
			-160.40		3.3057E-03
			-157.40		3.4444E-03
			-154.40		3.9307E-03
			-151.40		4.1552E-03
			-148.40		4.0844E-03
			-145.40		4.4433E-03
			-142.40		5.3005E-03
			-139.40		5.6166E-03
			-136.40		5.3790E-03
			-133.40		6.2251E-03
			-130.40		6.9032E-03
			-127.40		7.8565E-03
			-124.40		8.1665E-03
			-121.40		8.6386E-03
			-118.40		9.4356E-03
			-115.40		10.329E-03
			-112.40		10.841E-03
			-109.40		11.979E-03
			-106.40		13.018E-03
			-103.40		14.272E-03
			-100.40		16.056E-03
			-97.40		17.299E-03
			-94.40		18.947E-03
			-91.40		21.269E-03
			-88.40		23.281E-03
			-85.40		26.378E-03
			-82.40		30.338E-03
			-79.40		36.609E-03
			-76.40		46.590E-03
			-73.40		72.392E-03
			-70.40		165.96E-03
			-67.40		375.24E-03
			-64.40		541.18E-03
			-61.40		602.00E-03
			-58.40		628.15E-03
			-55.40		639.54E-03
			-52.40		650.70E-03
			-49.40		654.85E-03
			-46.40		658.12E-03
			-43.40		661.40E-03
			-40.40		663.25E-03
			-37.40		666.94E-03
			-34.40		665.76E-03
			-31.40		666.98E-03
			-28.40		669.37E-03
			-25.40		667.80E-03
			-22.40		665.76E-03
			-19.40		669.84E-03
			-16.40		671.58E-03
			-13.40		673.97E-03
			0.00		669.14E-03
			13.40		672.22E-03
			16.40		669.29E-03
			19.40		666.19E-03
			22.40		663.47E-03
			25.40		663.24E-03
			28.40		662.24E-03
			31.40		660.27E-03
			34.40		657.69E-03
			37.40		657.14E-03
			40.40		655.59E-03
			43.40		653.31E-03
			46.40		651.55E-03
			49.40		647.44E-03
			52.40		638.83E-03
			55.40		630.15E-03
			58.40		619.27E-03
			61.40		591.00E-03
			64.40		519.81E-03
			67.40		349.25E-03
			70.40		154.34E-03
			73.40		69.272E-03
			76.40		45.326E-03
			79.40		36.004E-03
			82.40		31.096E-03
			85.40		27.118E-03
			88.40		24.166E-03
			91.40		21.931E-03
			94.40		19.635E-03
			97.40		17.837E-03
			100.40		15.308E-03
			103.40		14.134E-03
			106.40		13.473E-03
			109.40		11.836E-03
			112.40		11.414E-03
			115.40		10.280E-03
			118.40		9.6683E-03
			121.40		8.4485E-03
			124.40		7.7340E-03
			127.40		7.2368E-03
			130.40		7.0292E-03
			133.40		6.6178E-03
			136.40		5.7958E-03
			139.40		6.0643E-03
			142.40		5.4204E-03
			145.40		5.1672E-03
			148.40		4.8666E-03
			151.40		3.9486E-03
			154.40		4.5920E-03
			157.40		4.1568E-03
			160.40		3.7664E-03
			163.40		3.6962E-03
			166.40		3.4567E-03
			169.40		2.6220E-03
			172.40		2.6060E-03
		END_DATA
	END_SCAN  16
END_SCAN_DATA
