BEGIN_SCAN_DATA
	FORMAT=CC-Export V1.9                  
	FILE_CREATION_DATE=07-Oct-2010 14:20:30
	LAST_MODIFIED=07-Oct-2010 14:20:30
	BEGIN_SCAN  1
		TASK_NAME=MODE_INTERVAL
		PROGRAM=BeamAdjust 1.2
		MEAS_DATE=07-Oct-2010 14:20:30
		LINAC=A4
		MODALITY=X
		INPLANE_AXIS_DIR=TARGET_GUN
		CROSSPLANE_AXIS_DIR=LEFT_RIGHT
		DEPTH_AXIS_DIR=UP_DOWN
		ENERGY=6.00
		SSD=950.00
		WEDGE=None
		FIELD_INPLANE=100.00
		FIELD_CROSSPLANE=100.00
		FIELD_TYPE=RECTANGULAR
		GANTRY=0.00
		GANTRY_UPRIGHT_POSITION=0
		GANTRY_ROTATION=CW
		COLL_ANGLE=90.00
		COLL_OFFSET_INPLANE=0.00
		COLL_OFFSET_CROSSPLANE=0.00
		SCAN_DEVICE=STARCHECK
		ELECTROMETER=2D_ARRAY_INTERFACE
		DETECTOR=STARCHECK
		SCAN_CURVETYPE=CROSSPLANE_PROFILE
		SCAN_DEPTH=0.00
		SCAN_OFFAXIS_INPLANE=-130.00
		SCAN_ANGLE=0.00
		SCAN_DIAGONAL=NOT_DIAGONAL
		MEAS_PRESET=TIME_PRESET
		MEAS_TIME=10.000
		MEAS_UNIT=GY
		PRESSURE=1013.25
		TEMPERATURE=20.00
		NORM_TEMPERATURE=20.00
		CORRECTION_FACTOR=1.0000
		CORRECTIONS=AIR_DENSITY_CORR;
		BEGIN_DATA
			-130.00		2.3752E-03
			-80.00		3.9296E-03
			-40.00		6.9536E-03
			40.00		6.9634E-03
			80.00		3.7355E-03
			130.00		1.9569E-03
		END_DATA
	END_SCAN  1
	BEGIN_SCAN  2
		TASK_NAME=MODE_INTERVAL
		PROGRAM=BeamAdjust 1.2
		MEAS_DATE=07-Oct-2010 14:20:30
		LINAC=A4
		MODALITY=X
		INPLANE_AXIS_DIR=TARGET_GUN
		CROSSPLANE_AXIS_DIR=LEFT_RIGHT
		DEPTH_AXIS_DIR=UP_DOWN
		ENERGY=6.00
		SSD=950.00
		WEDGE=None
		FIELD_INPLANE=100.00
		FIELD_CROSSPLANE=100.00
		FIELD_TYPE=RECTANGULAR
		GANTRY=0.00
		GANTRY_UPRIGHT_POSITION=0
		GANTRY_ROTATION=CW
		COLL_ANGLE=90.00
		COLL_OFFSET_INPLANE=0.00
		COLL_OFFSET_CROSSPLANE=0.00
		SCAN_DEVICE=STARCHECK
		ELECTROMETER=2D_ARRAY_INTERFACE
		DETECTOR=STARCHECK
		SCAN_CURVETYPE=CROSSPLANE_PROFILE
		SCAN_DEPTH=0.00
		SCAN_OFFAXIS_INPLANE=-100.00
		SCAN_ANGLE=0.00
		SCAN_DIAGONAL=NOT_DIAGONAL
		MEAS_PRESET=TIME_PRESET
		MEAS_TIME=10.000
		MEAS_UNIT=GY
		PRESSURE=1013.25
		TEMPERATURE=20.00
		NORM_TEMPERATURE=20.00
		CORRECTION_FACTOR=1.0000
		CORRECTIONS=AIR_DENSITY_CORR;
		BEGIN_DATA
			-60.00		10.160E-03
			-30.00		13.986E-03
			30.00		14.757E-03
			60.00		9.7876E-03
		END_DATA
	END_SCAN  2
	BEGIN_SCAN  3
		TASK_NAME=MODE_INTERVAL
		PROGRAM=BeamAdjust 1.2
		MEAS_DATE=07-Oct-2010 14:20:30
		LINAC=A4
		MODALITY=X
		INPLANE_AXIS_DIR=TARGET_GUN
		CROSSPLANE_AXIS_DIR=LEFT_RIGHT
		DEPTH_AXIS_DIR=UP_DOWN
		ENERGY=6.00
		SSD=950.00
		WEDGE=None
		FIELD_INPLANE=100.00
		FIELD_CROSSPLANE=100.00
		FIELD_TYPE=RECTANGULAR
		GANTRY=0.00
		GANTRY_UPRIGHT_POSITION=0
		GANTRY_ROTATION=CW
		COLL_ANGLE=90.00
		COLL_OFFSET_INPLANE=0.00
		COLL_OFFSET_CROSSPLANE=0.00
		SCAN_DEVICE=STARCHECK
		ELECTROMETER=2D_ARRAY_INTERFACE
		DETECTOR=STARCHECK
		SCAN_CURVETYPE=CROSSPLANE_PROFILE
		SCAN_DEPTH=0.00
		SCAN_OFFAXIS_INPLANE=-50.00
		SCAN_ANGLE=0.00
		SCAN_DIAGONAL=NOT_DIAGONAL
		MEAS_PRESET=TIME_PRESET
		MEAS_TIME=10.000
		MEAS_UNIT=GY
		PRESSURE=1013.25
		TEMPERATURE=20.00
		NORM_TEMPERATURE=20.00
		CORRECTION_FACTOR=1.0000
		CORRECTIONS=AIR_DENSITY_CORR;
		BEGIN_DATA
			-30.00		343.01E-03
			-15.00		303.78E-03
			15.00		329.85E-03
			30.00		340.03E-03
		END_DATA
	END_SCAN  3
	BEGIN_SCAN  4
		TASK_NAME=MODE_INTERVAL
		PROGRAM=BeamAdjust 1.2
		MEAS_DATE=07-Oct-2010 14:20:30
		LINAC=A4
		MODALITY=X
		INPLANE_AXIS_DIR=TARGET_GUN
		CROSSPLANE_AXIS_DIR=LEFT_RIGHT
		DEPTH_AXIS_DIR=UP_DOWN
		ENERGY=6.00
		SSD=950.00
		WEDGE=None
		FIELD_INPLANE=100.00
		FIELD_CROSSPLANE=100.00
		FIELD_TYPE=RECTANGULAR
		GANTRY=0.00
		GANTRY_UPRIGHT_POSITION=0
		GANTRY_ROTATION=CW
		COLL_ANGLE=90.00
		COLL_OFFSET_INPLANE=0.00
		COLL_OFFSET_CROSSPLANE=0.00
		SCAN_DEVICE=STARCHECK
		ELECTROMETER=2D_ARRAY_INTERFACE
		DETECTOR=STARCHECK
		SCAN_CURVETYPE=CROSSPLANE_PROFILE
		SCAN_DEPTH=0.00
		SCAN_OFFAXIS_INPLANE=0.00
		SCAN_ANGLE=0.00
		SCAN_DIAGONAL=NOT_DIAGONAL
		MEAS_PRESET=TIME_PRESET
		MEAS_TIME=10.000
		MEAS_UNIT=GY
		PRESSURE=1013.25
		TEMPERATURE=20.00
		NORM_TEMPERATURE=20.00
		CORRECTION_FACTOR=1.0000
		CORRECTIONS=AIR_DENSITY_CORR;
		BEGIN_DATA
			-126.00		6.7185E-03
			-123.00		7.4697E-03
			-120.00		7.5181E-03
			-117.00		8.6134E-03
			-114.00		9.1047E-03
			-111.00		9.2827E-03
			-108.00		10.011E-03
			-105.00		11.200E-03
			-102.00		12.005E-03
			-99.00		13.269E-03
			-96.00		13.837E-03
			-93.00		15.310E-03
			-90.00		16.476E-03
			-87.00		17.983E-03
			-84.00		20.492E-03
			-81.00		22.048E-03
			-78.00		23.568E-03
			-75.00		26.849E-03
			-72.00		29.733E-03
			-69.00		33.960E-03
			-66.00		39.212E-03
			-63.00		45.371E-03
			-60.00		54.923E-03
			-57.00		72.615E-03
			-54.00		114.07E-03
			-51.00		290.69E-03
			-48.00		554.57E-03
			-45.00		616.53E-03
			-42.00		636.42E-03
			-39.00		649.01E-03
			-36.00		654.66E-03
			-33.00		654.89E-03
			-30.00		656.96E-03
			-27.00		659.85E-03
			-24.00		662.05E-03
			-21.00		661.62E-03
			-18.00		667.51E-03
			-15.00		669.12E-03
			-12.00		667.64E-03
			-9.00		669.68E-03
			-6.00		668.63E-03
			0.00		668.09E-03
			6.00		671.55E-03
			9.00		670.52E-03
			12.00		668.25E-03
			15.00		667.18E-03
			18.00		666.61E-03
			21.00		664.95E-03
			24.00		661.30E-03
			27.00		665.30E-03
			30.00		663.76E-03
			33.00		661.39E-03
			36.00		658.14E-03
			39.00		651.43E-03
			42.00		640.23E-03
			45.00		615.40E-03
			48.00		526.75E-03
			51.00		232.86E-03
			54.00		101.96E-03
			57.00		68.239E-03
			60.00		53.078E-03
			63.00		44.178E-03
			66.00		37.626E-03
			69.00		33.182E-03
			72.00		29.604E-03
			75.00		26.466E-03
			78.00		23.894E-03
			81.00		21.629E-03
			84.00		19.827E-03
			87.00		17.499E-03
			90.00		16.686E-03
			93.00		15.145E-03
			96.00		13.637E-03
			99.00		12.607E-03
			102.00		11.795E-03
			105.00		10.969E-03
			108.00		10.684E-03
			111.00		8.8850E-03
			114.00		8.5654E-03
			117.00		8.2771E-03
			120.00		7.4826E-03
			123.00		6.9841E-03
			126.00		6.9243E-03
		END_DATA
	END_SCAN  4
	BEGIN_SCAN  5
		TASK_NAME=MODE_INTERVAL
		PROGRAM=BeamAdjust 1.2
		MEAS_DATE=07-Oct-2010 14:20:30
		LINAC=A4
		MODALITY=X
		INPLANE_AXIS_DIR=TARGET_GUN
		CROSSPLANE_AXIS_DIR=LEFT_RIGHT
		DEPTH_AXIS_DIR=UP_DOWN
		ENERGY=6.00
		SSD=950.00
		WEDGE=None
		FIELD_INPLANE=100.00
		FIELD_CROSSPLANE=100.00
		FIELD_TYPE=RECTANGULAR
		GANTRY=0.00
		GANTRY_UPRIGHT_POSITION=0
		GANTRY_ROTATION=CW
		COLL_ANGLE=90.00
		COLL_OFFSET_INPLANE=0.00
		COLL_OFFSET_CROSSPLANE=0.00
		SCAN_DEVICE=STARCHECK
		ELECTROMETER=2D_ARRAY_INTERFACE
		DETECTOR=STARCHECK
		SCAN_CURVETYPE=CROSSPLANE_PROFILE
		SCAN_DEPTH=0.00
		SCAN_OFFAXIS_INPLANE=50.00
		SCAN_ANGLE=0.00
		SCAN_DIAGONAL=NOT_DIAGONAL
		MEAS_PRESET=TIME_PRESET
		MEAS_TIME=10.000
		MEAS_UNIT=GY
		PRESSURE=1013.25
		TEMPERATURE=20.00
		NORM_TEMPERATURE=20.00
		CORRECTION_FACTOR=1.0000
		CORRECTIONS=AIR_DENSITY_CORR;
		BEGIN_DATA
			-30.00		320.85E-03
			-15.00		334.26E-03
			15.00		303.89E-03
			30.00		310.26E-03
		END_DATA
	END_SCAN  5
	BEGIN_SCAN  6
		TASK_NAME=MODE_INTERVAL
		PROGRAM=BeamAdjust 1.2
		MEAS_DATE=07-Oct-2010 14:20:30
		LINAC=A4
		MODALITY=X
		INPLANE_AXIS_DIR=TARGET_GUN
		CROSSPLANE_AXIS_DIR=LEFT_RIGHT
		DEPTH_AXIS_DIR=UP_DOWN
		ENERGY=6.00
		SSD=950.00
		WEDGE=None
		FIELD_INPLANE=100.00
		FIELD_CROSSPLANE=100.00
		FIELD_TYPE=RECTANGULAR
		GANTRY=0.00
		GANTRY_UPRIGHT_POSITION=0
		GANTRY_ROTATION=CW
		COLL_ANGLE=90.00
		COLL_OFFSET_INPLANE=0.00
		COLL_OFFSET_CROSSPLANE=0.00
		SCAN_DEVICE=STARCHECK
		ELECTROMETER=2D_ARRAY_INTERFACE
		DETECTOR=STARCHECK
		SCAN_CURVETYPE=CROSSPLANE_PROFILE
		SCAN_DEPTH=0.00
		SCAN_OFFAXIS_INPLANE=100.00
		SCAN_ANGLE=0.00
		SCAN_DIAGONAL=NOT_DIAGONAL
		MEAS_PRESET=TIME_PRESET
		MEAS_TIME=10.000
		MEAS_UNIT=GY
		PRESSURE=1013.25
		TEMPERATURE=20.00
		NORM_TEMPERATURE=20.00
		CORRECTION_FACTOR=1.0000
		CORRECTIONS=AIR_DENSITY_CORR;
		BEGIN_DATA
			-60.00		10.218E-03
			-30.00		15.568E-03
			30.00		15.072E-03
			60.00		9.2913E-03
		END_DATA
	END_SCAN  6
	BEGIN_SCAN  7
		TASK_NAME=MODE_INTERVAL
		PROGRAM=BeamAdjust 1.2
		MEAS_DATE=07-Oct-2010 14:20:30
		LINAC=A4
		MODALITY=X
		INPLANE_AXIS_DIR=TARGET_GUN
		CROSSPLANE_AXIS_DIR=LEFT_RIGHT
		DEPTH_AXIS_DIR=UP_DOWN
		ENERGY=6.00
		SSD=950.00
		WEDGE=None
		FIELD_INPLANE=100.00
		FIELD_CROSSPLANE=100.00
		FIELD_TYPE=RECTANGULAR
		GANTRY=0.00
		GANTRY_UPRIGHT_POSITION=0
		GANTRY_ROTATION=CW
		COLL_ANGLE=90.00
		COLL_OFFSET_INPLANE=0.00
		COLL_OFFSET_CROSSPLANE=0.00
		SCAN_DEVICE=STARCHECK
		ELECTROMETER=2D_ARRAY_INTERFACE
		DETECTOR=STARCHECK
		SCAN_CURVETYPE=CROSSPLANE_PROFILE
		SCAN_DEPTH=0.00
		SCAN_OFFAXIS_INPLANE=130.00
		SCAN_ANGLE=0.00
		SCAN_DIAGONAL=NOT_DIAGONAL
		MEAS_PRESET=TIME_PRESET
		MEAS_TIME=10.000
		MEAS_UNIT=GY
		PRESSURE=1013.25
		TEMPERATURE=20.00
		NORM_TEMPERATURE=20.00
		CORRECTION_FACTOR=1.0000
		CORRECTIONS=AIR_DENSITY_CORR;
		BEGIN_DATA
			-130.00		1.7929E-03
			-80.00		3.9233E-03
			-40.00		7.5067E-03
			40.00		7.1716E-03
			80.00		4.3467E-03
			130.00		2.6448E-03
		END_DATA
	END_SCAN  7
	BEGIN_SCAN  8
		TASK_NAME=MODE_INTERVAL
		PROGRAM=BeamAdjust 1.2
		MEAS_DATE=07-Oct-2010 14:20:30
		LINAC=A4
		MODALITY=X
		INPLANE_AXIS_DIR=TARGET_GUN
		CROSSPLANE_AXIS_DIR=LEFT_RIGHT
		DEPTH_AXIS_DIR=UP_DOWN
		ENERGY=6.00
		SSD=950.00
		WEDGE=None
		FIELD_INPLANE=100.00
		FIELD_CROSSPLANE=100.00
		FIELD_TYPE=RECTANGULAR
		GANTRY=0.00
		GANTRY_UPRIGHT_POSITION=0
		GANTRY_ROTATION=CW
		COLL_ANGLE=90.00
		COLL_OFFSET_INPLANE=0.00
		COLL_OFFSET_CROSSPLANE=0.00
		SCAN_DEVICE=STARCHECK
		ELECTROMETER=2D_ARRAY_INTERFACE
		DETECTOR=STARCHECK
		SCAN_CURVETYPE=INPLANE_PROFILE
		SCAN_DEPTH=0.00
		SCAN_OFFAXIS_CROSSPLANE=-130.00
		SCAN_ANGLE=0.00
		SCAN_DIAGONAL=NOT_DIAGONAL
		MEAS_PRESET=TIME_PRESET
		MEAS_TIME=10.000
		MEAS_UNIT=GY
		PRESSURE=1013.25
		TEMPERATURE=20.00
		NORM_TEMPERATURE=20.00
		CORRECTION_FACTOR=1.0000
		CORRECTIONS=AIR_DENSITY_CORR;
		BEGIN_DATA
			-130.00		2.3752E-03
			-125.00		2.5913E-03
			-120.00		3.1497E-03
			-115.00		3.2874E-03
			-110.00		3.5081E-03
			-105.00		3.5190E-03
			-100.00		4.1506E-03
			-95.00		4.4302E-03
			-90.00		4.3816E-03
			-85.00		4.2612E-03
			-80.00		4.3113E-03
			-75.00		4.6609E-03
			-70.00		4.7622E-03
			-65.00		5.1381E-03
			-60.00		5.1425E-03
			-55.00		5.7375E-03
			-50.00		4.1782E-03
			-45.00		4.9239E-03
			-40.00		5.2402E-03
			-35.00		5.0935E-03
			-30.00		5.4309E-03
			-25.00		5.2469E-03
			-20.00		4.7818E-03
			-15.00		4.8624E-03
			-10.00		5.4307E-03
			-5.00		6.2162E-03
			0.00		5.5669E-03
			5.00		6.2963E-03
			10.00		5.8359E-03
			15.00		5.6220E-03
			20.00		5.5918E-03
			25.00		4.9437E-03
			30.00		6.1485E-03
			35.00		5.3422E-03
			40.00		4.7466E-03
			45.00		4.7892E-03
			50.00		5.1009E-03
			55.00		4.2327E-03
			60.00		4.1056E-03
			65.00		4.0194E-03
			70.00		3.9463E-03
			75.00		3.6953E-03
			80.00		3.3413E-03
			85.00		3.6351E-03
			90.00		3.2693E-03
			95.00		3.0647E-03
			100.00		3.8093E-03
			105.00		2.6729E-03
			110.00		2.1891E-03
			115.00		2.0217E-03
			120.00		2.5929E-03
			125.00		2.3999E-03
			130.00		1.7929E-03
		END_DATA
	END_SCAN  8
	BEGIN_SCAN  9
		TASK_NAME=MODE_INTERVAL
		PROGRAM=BeamAdjust 1.2
		MEAS_DATE=07-Oct-2010 14:20:30
		LINAC=A4
		MODALITY=X
		INPLANE_AXIS_DIR=TARGET_GUN
		CROSSPLANE_AXIS_DIR=LEFT_RIGHT
		DEPTH_AXIS_DIR=UP_DOWN
		ENERGY=6.00
		SSD=950.00
		WEDGE=None
		FIELD_INPLANE=100.00
		FIELD_CROSSPLANE=100.00
		FIELD_TYPE=RECTANGULAR
		GANTRY=0.00
		GANTRY_UPRIGHT_POSITION=0
		GANTRY_ROTATION=CW
		COLL_ANGLE=90.00
		COLL_OFFSET_INPLANE=0.00
		COLL_OFFSET_CROSSPLANE=0.00
		SCAN_DEVICE=STARCHECK
		ELECTROMETER=2D_ARRAY_INTERFACE
		DETECTOR=STARCHECK
		SCAN_CURVETYPE=INPLANE_PROFILE
		SCAN_DEPTH=0.00
		SCAN_OFFAXIS_CROSSPLANE=-100.00
		SCAN_ANGLE=0.00
		SCAN_DIAGONAL=NOT_DIAGONAL
		MEAS_PRESET=TIME_PRESET
		MEAS_TIME=10.000
		MEAS_UNIT=GY
		PRESSURE=1013.25
		TEMPERATURE=20.00
		NORM_TEMPERATURE=20.00
		CORRECTION_FACTOR=1.0000
		CORRECTIONS=AIR_DENSITY_CORR;
		BEGIN_DATA
			-60.00		8.1433E-03
			-30.00		10.485E-03
			30.00		10.265E-03
			60.00		7.7861E-03
		END_DATA
	END_SCAN  9
	BEGIN_SCAN  10
		TASK_NAME=MODE_INTERVAL
		PROGRAM=BeamAdjust 1.2
		MEAS_DATE=07-Oct-2010 14:20:30
		LINAC=A4
		MODALITY=X
		INPLANE_AXIS_DIR=TARGET_GUN
		CROSSPLANE_AXIS_DIR=LEFT_RIGHT
		DEPTH_AXIS_DIR=UP_DOWN
		ENERGY=6.00
		SSD=950.00
		WEDGE=None
		FIELD_INPLANE=100.00
		FIELD_CROSSPLANE=100.00
		FIELD_TYPE=RECTANGULAR
		GANTRY=0.00
		GANTRY_UPRIGHT_POSITION=0
		GANTRY_ROTATION=CW
		COLL_ANGLE=90.00
		COLL_OFFSET_INPLANE=0.00
		COLL_OFFSET_CROSSPLANE=0.00
		SCAN_DEVICE=STARCHECK
		ELECTROMETER=2D_ARRAY_INTERFACE
		DETECTOR=STARCHECK
		SCAN_CURVETYPE=INPLANE_PROFILE
		SCAN_DEPTH=0.00
		SCAN_OFFAXIS_CROSSPLANE=-50.00
		SCAN_ANGLE=0.00
		SCAN_DIAGONAL=NOT_DIAGONAL
		MEAS_PRESET=TIME_PRESET
		MEAS_TIME=10.000
		MEAS_UNIT=GY
		PRESSURE=1013.25
		TEMPERATURE=20.00
		NORM_TEMPERATURE=20.00
		CORRECTION_FACTOR=1.0000
		CORRECTIONS=AIR_DENSITY_CORR;
		BEGIN_DATA
			-30.00		396.58E-03
			-15.00		393.22E-03
			15.00		383.18E-03
			30.00		372.37E-03
		END_DATA
	END_SCAN  10
	BEGIN_SCAN  11
		TASK_NAME=MODE_INTERVAL
		PROGRAM=BeamAdjust 1.2
		MEAS_DATE=07-Oct-2010 14:20:30
		LINAC=A4
		MODALITY=X
		INPLANE_AXIS_DIR=TARGET_GUN
		CROSSPLANE_AXIS_DIR=LEFT_RIGHT
		DEPTH_AXIS_DIR=UP_DOWN
		ENERGY=6.00
		SSD=950.00
		WEDGE=None
		FIELD_INPLANE=100.00
		FIELD_CROSSPLANE=100.00
		FIELD_TYPE=RECTANGULAR
		GANTRY=0.00
		GANTRY_UPRIGHT_POSITION=0
		GANTRY_ROTATION=CW
		COLL_ANGLE=90.00
		COLL_OFFSET_INPLANE=0.00
		COLL_OFFSET_CROSSPLANE=0.00
		SCAN_DEVICE=STARCHECK
		ELECTROMETER=2D_ARRAY_INTERFACE
		DETECTOR=STARCHECK
		SCAN_CURVETYPE=INPLANE_PROFILE
		SCAN_DEPTH=0.00
		SCAN_OFFAXIS_CROSSPLANE=0.00
		SCAN_ANGLE=0.00
		SCAN_DIAGONAL=NOT_DIAGONAL
		MEAS_PRESET=TIME_PRESET
		MEAS_TIME=10.000
		MEAS_UNIT=GY
		PRESSURE=1013.25
		TEMPERATURE=20.00
		NORM_TEMPERATURE=20.00
		CORRECTION_FACTOR=1.0000
		CORRECTIONS=AIR_DENSITY_CORR;
		BEGIN_DATA
			-126.00		9.0698E-03
			-123.00		8.8926E-03
			-120.00		10.225E-03
			-117.00		11.094E-03
			-114.00		11.748E-03
			-111.00		12.603E-03
			-108.00		13.494E-03
			-105.00		14.374E-03
			-102.00		15.692E-03
			-99.00		16.484E-03
			-96.00		18.313E-03
			-93.00		20.022E-03
			-90.00		21.552E-03
			-87.00		23.100E-03
			-84.00		25.202E-03
			-81.00		27.732E-03
			-78.00		30.225E-03
			-75.00		32.483E-03
			-72.00		35.831E-03
			-69.00		39.554E-03
			-66.00		44.771E-03
			-63.00		50.604E-03
			-60.00		59.727E-03
			-57.00		77.313E-03
			-54.00		117.65E-03
			-51.00		251.71E-03
			-48.00		520.18E-03
			-45.00		616.10E-03
			-42.00		640.66E-03
			-39.00		651.28E-03
			-36.00		657.30E-03
			-33.00		660.62E-03
			-30.00		664.86E-03
			-27.00		666.48E-03
			-24.00		665.77E-03
			-21.00		664.32E-03
			-18.00		670.81E-03
			-15.00		670.17E-03
			-12.00		671.37E-03
			-9.00		671.29E-03
			-6.00		668.59E-03
			0.00		668.09E-03
			6.00		671.99E-03
			9.00		671.74E-03
			12.00		671.48E-03
			15.00		668.74E-03
			18.00		664.26E-03
			21.00		664.18E-03
			24.00		660.67E-03
			27.00		662.19E-03
			30.00		658.25E-03
			33.00		656.26E-03
			36.00		654.30E-03
			39.00		643.59E-03
			42.00		633.80E-03
			45.00		607.01E-03
			48.00		485.00E-03
			51.00		224.35E-03
			54.00		109.32E-03
			57.00		73.416E-03
			60.00		58.337E-03
			63.00		49.678E-03
			66.00		43.855E-03
			69.00		38.910E-03
			72.00		35.372E-03
			75.00		31.562E-03
			78.00		28.669E-03
			81.00		26.279E-03
			84.00		24.604E-03
			87.00		22.232E-03
			90.00		20.663E-03
			93.00		18.963E-03
			96.00		17.774E-03
			99.00		16.331E-03
			102.00		14.493E-03
			105.00		13.517E-03
			108.00		13.439E-03
			111.00		12.204E-03
			114.00		11.197E-03
			117.00		10.145E-03
			120.00		10.290E-03
			123.00		9.2228E-03
			126.00		8.1069E-03
		END_DATA
	END_SCAN  11
	BEGIN_SCAN  12
		TASK_NAME=MODE_INTERVAL
		PROGRAM=BeamAdjust 1.2
		MEAS_DATE=07-Oct-2010 14:20:30
		LINAC=A4
		MODALITY=X
		INPLANE_AXIS_DIR=TARGET_GUN
		CROSSPLANE_AXIS_DIR=LEFT_RIGHT
		DEPTH_AXIS_DIR=UP_DOWN
		ENERGY=6.00
		SSD=950.00
		WEDGE=None
		FIELD_INPLANE=100.00
		FIELD_CROSSPLANE=100.00
		FIELD_TYPE=RECTANGULAR
		GANTRY=0.00
		GANTRY_UPRIGHT_POSITION=0
		GANTRY_ROTATION=CW
		COLL_ANGLE=90.00
		COLL_OFFSET_INPLANE=0.00
		COLL_OFFSET_CROSSPLANE=0.00
		SCAN_DEVICE=STARCHECK
		ELECTROMETER=2D_ARRAY_INTERFACE
		DETECTOR=STARCHECK
		SCAN_CURVETYPE=INPLANE_PROFILE
		SCAN_DEPTH=0.00
		SCAN_OFFAXIS_CROSSPLANE=50.00
		SCAN_ANGLE=0.00
		SCAN_DIAGONAL=NOT_DIAGONAL
		MEAS_PRESET=TIME_PRESET
		MEAS_TIME=10.000
		MEAS_UNIT=GY
		PRESSURE=1013.25
		TEMPERATURE=20.00
		NORM_TEMPERATURE=20.00
		CORRECTION_FACTOR=1.0000
		CORRECTIONS=AIR_DENSITY_CORR;
		BEGIN_DATA
			-30.00		327.00E-03
			-15.00		337.32E-03
			15.00		344.50E-03
			30.00		345.37E-03
		END_DATA
	END_SCAN  12
	BEGIN_SCAN  13
		TASK_NAME=MODE_INTERVAL
		PROGRAM=BeamAdjust 1.2
		MEAS_DATE=07-Oct-2010 14:20:30
		LINAC=A4
		MODALITY=X
		INPLANE_AXIS_DIR=TARGET_GUN
		CROSSPLANE_AXIS_DIR=LEFT_RIGHT
		DEPTH_AXIS_DIR=UP_DOWN
		ENERGY=6.00
		SSD=950.00
		WEDGE=None
		FIELD_INPLANE=100.00
		FIELD_CROSSPLANE=100.00
		FIELD_TYPE=RECTANGULAR
		GANTRY=0.00
		GANTRY_UPRIGHT_POSITION=0
		GANTRY_ROTATION=CW
		COLL_ANGLE=90.00
		COLL_OFFSET_INPLANE=0.00
		COLL_OFFSET_CROSSPLANE=0.00
		SCAN_DEVICE=STARCHECK
		ELECTROMETER=2D_ARRAY_INTERFACE
		DETECTOR=STARCHECK
		SCAN_CURVETYPE=INPLANE_PROFILE
		SCAN_DEPTH=0.00
		SCAN_OFFAXIS_CROSSPLANE=100.00
		SCAN_ANGLE=0.00
		SCAN_DIAGONAL=NOT_DIAGONAL
		MEAS_PRESET=TIME_PRESET
		MEAS_TIME=10.000
		MEAS_UNIT=GY
		PRESSURE=1013.25
		TEMPERATURE=20.00
		NORM_TEMPERATURE=20.00
		CORRECTION_FACTOR=1.0000
		CORRECTIONS=AIR_DENSITY_CORR;
		BEGIN_DATA
			-60.00		7.9338E-03
			-30.00		10.006E-03
			30.00		10.338E-03
			60.00		7.6220E-03
		END_DATA
	END_SCAN  13
	BEGIN_SCAN  14
		TASK_NAME=MODE_INTERVAL
		PROGRAM=BeamAdjust 1.2
		MEAS_DATE=07-Oct-2010 14:20:30
		LINAC=A4
		MODALITY=X
		INPLANE_AXIS_DIR=TARGET_GUN
		CROSSPLANE_AXIS_DIR=LEFT_RIGHT
		DEPTH_AXIS_DIR=UP_DOWN
		ENERGY=6.00
		SSD=950.00
		WEDGE=None
		FIELD_INPLANE=100.00
		FIELD_CROSSPLANE=100.00
		FIELD_TYPE=RECTANGULAR
		GANTRY=0.00
		GANTRY_UPRIGHT_POSITION=0
		GANTRY_ROTATION=CW
		COLL_ANGLE=90.00
		COLL_OFFSET_INPLANE=0.00
		COLL_OFFSET_CROSSPLANE=0.00
		SCAN_DEVICE=STARCHECK
		ELECTROMETER=2D_ARRAY_INTERFACE
		DETECTOR=STARCHECK
		SCAN_CURVETYPE=INPLANE_PROFILE
		SCAN_DEPTH=0.00
		SCAN_OFFAXIS_CROSSPLANE=130.00
		SCAN_ANGLE=0.00
		SCAN_DIAGONAL=NOT_DIAGONAL
		MEAS_PRESET=TIME_PRESET
		MEAS_TIME=10.000
		MEAS_UNIT=GY
		PRESSURE=1013.25
		TEMPERATURE=20.00
		NORM_TEMPERATURE=20.00
		CORRECTION_FACTOR=1.0000
		CORRECTIONS=AIR_DENSITY_CORR;
		BEGIN_DATA
			-130.00		1.9569E-03
			-125.00		2.3638E-03
			-120.00		2.0931E-03
			-115.00		2.5329E-03
			-110.00		2.6166E-03
			-105.00		2.6865E-03
			-100.00		2.9674E-03
			-95.00		3.2394E-03
			-90.00		2.5562E-03
			-85.00		3.8520E-03
			-80.00		3.5294E-03
			-75.00		3.3750E-03
			-70.00		3.9190E-03
			-65.00		4.0218E-03
			-60.00		4.5946E-03
			-55.00		3.9546E-03
			-50.00		4.2413E-03
			-45.00		4.8463E-03
			-40.00		4.8595E-03
			-35.00		5.1353E-03
			-30.00		5.5770E-03
			-25.00		5.1287E-03
			-20.00		5.1418E-03
			-15.00		5.1804E-03
			-10.00		4.6207E-03
			-5.00		5.6936E-03
			0.00		6.1287E-03
			5.00		5.6521E-03
			10.00		5.6485E-03
			15.00		5.3119E-03
			20.00		5.5126E-03
			25.00		5.2508E-03
			30.00		5.0549E-03
			35.00		5.2272E-03
			40.00		5.8887E-03
			45.00		5.1331E-03
			50.00		4.8103E-03
			55.00		5.2985E-03
			60.00		4.6459E-03
			65.00		3.9551E-03
			70.00		4.0405E-03
			75.00		4.2196E-03
			80.00		3.9258E-03
			85.00		3.9196E-03
			90.00		3.4239E-03
			95.00		3.2583E-03
			100.00		3.5140E-03
			105.00		2.7891E-03
			110.00		3.1971E-03
			115.00		2.6887E-03
			120.00		2.6592E-03
			125.00		2.3597E-03
			130.00		2.6448E-03
		END_DATA
	END_SCAN  14
	BEGIN_SCAN  15
		TASK_NAME=MODE_INTERVAL
		PROGRAM=BeamAdjust 1.2
		MEAS_DATE=07-Oct-2010 14:20:30
		LINAC=A4
		MODALITY=X
		INPLANE_AXIS_DIR=TARGET_GUN
		CROSSPLANE_AXIS_DIR=LEFT_RIGHT
		DEPTH_AXIS_DIR=UP_DOWN
		ENERGY=6.00
		SSD=950.00
		WEDGE=None
		FIELD_INPLANE=100.00
		FIELD_CROSSPLANE=100.00
		FIELD_TYPE=RECTANGULAR
		GANTRY=0.00
		GANTRY_UPRIGHT_POSITION=0
		GANTRY_ROTATION=CW
		COLL_ANGLE=90.00
		COLL_OFFSET_INPLANE=0.00
		COLL_OFFSET_CROSSPLANE=0.00
		SCAN_DEVICE=STARCHECK
		ELECTROMETER=2D_ARRAY_INTERFACE
		DETECTOR=STARCHECK
		SCAN_CURVETYPE=INPLANE_PROFILE
		SCAN_DEPTH=0.00
		SCAN_OFFAXIS_CROSSPLANE=0.00
		SCAN_ANGLE=0.00
		SCAN_DIAGONAL=FIRST_DIAGONAL
		MEAS_PRESET=TIME_PRESET
		MEAS_TIME=10.000
		MEAS_UNIT=GY
		PRESSURE=1013.25
		TEMPERATURE=20.00
		NORM_TEMPERATURE=20.00
		CORRECTION_FACTOR=1.0000
		CORRECTIONS=AIR_DENSITY_CORR;
		BEGIN_DATA
			-172.40		2.5924E-03
			-169.40		2.9428E-03
			-166.40		3.6165E-03
			-163.40		3.7554E-03
			-160.40		3.9445E-03
			-157.40		3.6580E-03
			-154.40		3.7472E-03
			-151.40		4.1650E-03
			-148.40		4.5891E-03
			-145.40		4.9514E-03
			-142.40		6.1138E-03
			-139.40		6.1705E-03
			-136.40		6.0661E-03
			-133.40		6.5709E-03
			-130.40		7.0162E-03
			-127.40		7.6063E-03
			-124.40		8.1285E-03
			-121.40		8.6665E-03
			-118.40		9.8540E-03
			-115.40		10.586E-03
			-112.40		11.275E-03
			-109.40		12.720E-03
			-106.40		13.465E-03
			-103.40		13.817E-03
			-100.40		16.119E-03
			-97.40		18.056E-03
			-94.40		19.595E-03
			-91.40		21.756E-03
			-88.40		24.757E-03
			-85.40		27.594E-03
			-82.40		31.833E-03
			-79.40		37.802E-03
			-76.40		49.023E-03
			-73.40		81.337E-03
			-70.40		197.84E-03
			-67.40		410.03E-03
			-64.40		551.31E-03
			-61.40		602.51E-03
			-58.40		624.27E-03
			-55.40		635.95E-03
			-52.40		643.32E-03
			-49.40		648.94E-03
			-46.40		651.37E-03
			-43.40		654.01E-03
			-40.40		657.20E-03
			-37.40		661.59E-03
			-34.40		661.60E-03
			-31.40		663.29E-03
			-28.40		661.94E-03
			-25.40		664.54E-03
			-22.40		664.68E-03
			-19.40		665.22E-03
			-16.40		669.61E-03
			-13.40		671.99E-03
			0.00		668.09E-03
			13.40		672.64E-03
			16.40		667.96E-03
			19.40		667.46E-03
			22.40		666.17E-03
			25.40		665.32E-03
			28.40		664.36E-03
			31.40		661.74E-03
			34.40		658.72E-03
			37.40		661.40E-03
			40.40		658.87E-03
			43.40		655.50E-03
			46.40		653.45E-03
			49.40		648.31E-03
			52.40		643.51E-03
			55.40		631.23E-03
			58.40		618.21E-03
			61.40		590.39E-03
			64.40		513.87E-03
			67.40		340.11E-03
			70.40		149.25E-03
			73.40		68.521E-03
			76.40		45.483E-03
			79.40		36.261E-03
			82.40		30.410E-03
			85.40		26.099E-03
			88.40		24.146E-03
			91.40		21.716E-03
			94.40		18.971E-03
			97.40		17.080E-03
			100.40		15.623E-03
			103.40		14.687E-03
			106.40		13.265E-03
			109.40		12.141E-03
			112.40		10.523E-03
			115.40		9.9320E-03
			118.40		9.0216E-03
			121.40		8.1542E-03
			124.40		7.5010E-03
			127.40		7.8377E-03
			130.40		7.5515E-03
			133.40		6.1692E-03
			136.40		5.2861E-03
			139.40		5.1062E-03
			142.40		4.4606E-03
			145.40		4.2646E-03
			148.40		4.5971E-03
			151.40		3.6847E-03
			154.40		3.6856E-03
			157.40		3.2549E-03
			160.40		2.5735E-03
			163.40		2.5172E-03
			166.40		2.7784E-03
			169.40		2.5536E-03
			172.40		2.5683E-03
		END_DATA
	END_SCAN  15
	BEGIN_SCAN  16
		TASK_NAME=MODE_INTERVAL
		PROGRAM=BeamAdjust 1.2
		MEAS_DATE=07-Oct-2010 14:20:30
		LINAC=A4
		MODALITY=X
		INPLANE_AXIS_DIR=GUN_TARGET
		CROSSPLANE_AXIS_DIR=LEFT_RIGHT
		DEPTH_AXIS_DIR=UP_DOWN
		ENERGY=6.00
		SSD=950.00
		WEDGE=None
		FIELD_INPLANE=100.00
		FIELD_CROSSPLANE=100.00
		FIELD_TYPE=RECTANGULAR
		GANTRY=0.00
		GANTRY_UPRIGHT_POSITION=0
		GANTRY_ROTATION=CW
		COLL_ANGLE=90.00
		COLL_OFFSET_INPLANE=0.00
		COLL_OFFSET_CROSSPLANE=0.00
		SCAN_DEVICE=STARCHECK
		ELECTROMETER=2D_ARRAY_INTERFACE
		DETECTOR=STARCHECK
		SCAN_CURVETYPE=INPLANE_PROFILE
		SCAN_DEPTH=0.00
		SCAN_OFFAXIS_CROSSPLANE=0.00
		SCAN_ANGLE=0.00
		SCAN_DIAGONAL=SECOND_DIAGONAL
		MEAS_PRESET=TIME_PRESET
		MEAS_TIME=10.000
		MEAS_UNIT=GY
		PRESSURE=1013.25
		TEMPERATURE=20.00
		NORM_TEMPERATURE=20.00
		CORRECTION_FACTOR=1.0000
		CORRECTIONS=AIR_DENSITY_CORR;
		BEGIN_DATA
			-172.40		2.7596E-03
			-169.40		2.7080E-03
			-166.40		2.7967E-03
			-163.40		3.0862E-03
			-160.40		3.1333E-03
			-157.40		3.4043E-03
			-154.40		3.8061E-03
			-151.40		4.2530E-03
			-148.40		4.2674E-03
			-145.40		4.1069E-03
			-142.40		5.2872E-03
			-139.40		5.6285E-03
			-136.40		5.7036E-03
			-133.40		6.3923E-03
			-130.40		6.8619E-03
			-127.40		7.6672E-03
			-124.40		8.5581E-03
			-121.40		8.7190E-03
			-118.40		9.4252E-03
			-115.40		9.9824E-03
			-112.40		10.720E-03
			-109.40		11.734E-03
			-106.40		12.949E-03
			-103.40		14.505E-03
			-100.40		16.099E-03
			-97.40		17.020E-03
			-94.40		18.892E-03
			-91.40		21.032E-03
			-88.40		23.011E-03
			-85.40		26.061E-03
			-82.40		30.587E-03
			-79.40		35.755E-03
			-76.40		45.359E-03
			-73.40		69.324E-03
			-70.40		155.05E-03
			-67.40		359.28E-03
			-64.40		532.95E-03
			-61.40		598.83E-03
			-58.40		626.61E-03
			-55.40		638.21E-03
			-52.40		649.56E-03
			-49.40		654.12E-03
			-46.40		657.14E-03
			-43.40		660.43E-03
			-40.40		662.90E-03
			-37.40		665.65E-03
			-34.40		665.04E-03
			-31.40		666.01E-03
			-28.40		668.19E-03
			-25.40		667.33E-03
			-22.40		665.45E-03
			-19.40		668.32E-03
			-16.40		670.47E-03
			-13.40		673.62E-03
			0.00		668.09E-03
			13.40		671.59E-03
			16.40		667.94E-03
			19.40		665.22E-03
			22.40		662.58E-03
			25.40		662.47E-03
			28.40		660.98E-03
			31.40		659.85E-03
			34.40		656.45E-03
			37.40		656.02E-03
			40.40		654.46E-03
			43.40		652.48E-03
			46.40		650.53E-03
			49.40		646.39E-03
			52.40		638.28E-03
			55.40		629.93E-03
			58.40		619.42E-03
			61.40		593.41E-03
			64.40		528.84E-03
			67.40		366.19E-03
			70.40		164.79E-03
			73.40		72.480E-03
			76.40		46.228E-03
			79.40		36.143E-03
			82.40		31.318E-03
			85.40		27.248E-03
			88.40		24.268E-03
			91.40		21.763E-03
			94.40		19.731E-03
			97.40		17.939E-03
			100.40		15.391E-03
			103.40		14.197E-03
			106.40		13.621E-03
			109.40		12.587E-03
			112.40		11.038E-03
			115.40		10.263E-03
			118.40		9.6324E-03
			121.40		8.1893E-03
			124.40		7.8537E-03
			127.40		7.3834E-03
			130.40		7.3442E-03
			133.40		6.5611E-03
			136.40		6.0302E-03
			139.40		6.0314E-03
			142.40		5.5414E-03
			145.40		5.2693E-03
			148.40		4.7058E-03
			151.40		4.6442E-03
			154.40		4.2136E-03
			157.40		4.0591E-03
			160.40		3.6490E-03
			163.40		3.6151E-03
			166.40		3.5021E-03
			169.40		3.0347E-03
			172.40		2.4023E-03
		END_DATA
	END_SCAN  16
END_SCAN_DATA
