BEGIN_SCAN_DATA
	FORMAT=CC-Export V1.9                  
	FILE_CREATION_DATE=07-Oct-2010 14:20:58
	LAST_MODIFIED=07-Oct-2010 14:20:58
	BEGIN_SCAN  1
		TASK_NAME=MODE_INTERVAL
		PROGRAM=BeamAdjust 1.2
		MEAS_DATE=07-Oct-2010 14:20:58
		LINAC=A4
		MODALITY=X
		INPLANE_AXIS_DIR=TARGET_GUN
		CROSSPLANE_AXIS_DIR=LEFT_RIGHT
		DEPTH_AXIS_DIR=UP_DOWN
		ENERGY=6.00
		SSD=950.00
		WEDGE=None
		FIELD_INPLANE=100.00
		FIELD_CROSSPLANE=100.00
		FIELD_TYPE=RECTANGULAR
		GANTRY=0.00
		GANTRY_UPRIGHT_POSITION=0
		GANTRY_ROTATION=CW
		COLL_ANGLE=90.00
		COLL_OFFSET_INPLANE=0.00
		COLL_OFFSET_CROSSPLANE=0.00
		SCAN_DEVICE=STARCHECK
		ELECTROMETER=2D_ARRAY_INTERFACE
		DETECTOR=STARCHECK
		SCAN_CURVETYPE=CROSSPLANE_PROFILE
		SCAN_DEPTH=0.00
		SCAN_OFFAXIS_INPLANE=-130.00
		SCAN_ANGLE=0.00
		SCAN_DIAGONAL=NOT_DIAGONAL
		MEAS_PRESET=TIME_PRESET
		MEAS_TIME=10.000
		MEAS_UNIT=GY
		PRESSURE=1013.25
		TEMPERATURE=20.00
		NORM_TEMPERATURE=20.00
		CORRECTION_FACTOR=1.0000
		CORRECTIONS=AIR_DENSITY_CORR;
		BEGIN_DATA
			-130.00		2.4064E-03
			-80.00		3.9042E-03
			-40.00		6.9940E-03
			40.00		6.5395E-03
			80.00		4.0680E-03
			130.00		1.9658E-03
		END_DATA
	END_SCAN  1
	BEGIN_SCAN  2
		TASK_NAME=MODE_INTERVAL
		PROGRAM=BeamAdjust 1.2
		MEAS_DATE=07-Oct-2010 14:20:58
		LINAC=A4
		MODALITY=X
		INPLANE_AXIS_DIR=TARGET_GUN
		CROSSPLANE_AXIS_DIR=LEFT_RIGHT
		DEPTH_AXIS_DIR=UP_DOWN
		ENERGY=6.00
		SSD=950.00
		WEDGE=None
		FIELD_INPLANE=100.00
		FIELD_CROSSPLANE=100.00
		FIELD_TYPE=RECTANGULAR
		GANTRY=0.00
		GANTRY_UPRIGHT_POSITION=0
		GANTRY_ROTATION=CW
		COLL_ANGLE=90.00
		COLL_OFFSET_INPLANE=0.00
		COLL_OFFSET_CROSSPLANE=0.00
		SCAN_DEVICE=STARCHECK
		ELECTROMETER=2D_ARRAY_INTERFACE
		DETECTOR=STARCHECK
		SCAN_CURVETYPE=CROSSPLANE_PROFILE
		SCAN_DEPTH=0.00
		SCAN_OFFAXIS_INPLANE=-100.00
		SCAN_ANGLE=0.00
		SCAN_DIAGONAL=NOT_DIAGONAL
		MEAS_PRESET=TIME_PRESET
		MEAS_TIME=10.000
		MEAS_UNIT=GY
		PRESSURE=1013.25
		TEMPERATURE=20.00
		NORM_TEMPERATURE=20.00
		CORRECTION_FACTOR=1.0000
		CORRECTIONS=AIR_DENSITY_CORR;
		BEGIN_DATA
			-60.00		10.499E-03
			-30.00		13.815E-03
			30.00		14.653E-03
			60.00		9.7401E-03
		END_DATA
	END_SCAN  2
	BEGIN_SCAN  3
		TASK_NAME=MODE_INTERVAL
		PROGRAM=BeamAdjust 1.2
		MEAS_DATE=07-Oct-2010 14:20:58
		LINAC=A4
		MODALITY=X
		INPLANE_AXIS_DIR=TARGET_GUN
		CROSSPLANE_AXIS_DIR=LEFT_RIGHT
		DEPTH_AXIS_DIR=UP_DOWN
		ENERGY=6.00
		SSD=950.00
		WEDGE=None
		FIELD_INPLANE=100.00
		FIELD_CROSSPLANE=100.00
		FIELD_TYPE=RECTANGULAR
		GANTRY=0.00
		GANTRY_UPRIGHT_POSITION=0
		GANTRY_ROTATION=CW
		COLL_ANGLE=90.00
		COLL_OFFSET_INPLANE=0.00
		COLL_OFFSET_CROSSPLANE=0.00
		SCAN_DEVICE=STARCHECK
		ELECTROMETER=2D_ARRAY_INTERFACE
		DETECTOR=STARCHECK
		SCAN_CURVETYPE=CROSSPLANE_PROFILE
		SCAN_DEPTH=0.00
		SCAN_OFFAXIS_INPLANE=-50.00
		SCAN_ANGLE=0.00
		SCAN_DIAGONAL=NOT_DIAGONAL
		MEAS_PRESET=TIME_PRESET
		MEAS_TIME=10.000
		MEAS_UNIT=GY
		PRESSURE=1013.25
		TEMPERATURE=20.00
		NORM_TEMPERATURE=20.00
		CORRECTION_FACTOR=1.0000
		CORRECTIONS=AIR_DENSITY_CORR;
		BEGIN_DATA
			-30.00		315.89E-03
			-15.00		277.92E-03
			15.00		303.00E-03
			30.00		313.32E-03
		END_DATA
	END_SCAN  3
	BEGIN_SCAN  4
		TASK_NAME=MODE_INTERVAL
		PROGRAM=BeamAdjust 1.2
		MEAS_DATE=07-Oct-2010 14:20:58
		LINAC=A4
		MODALITY=X
		INPLANE_AXIS_DIR=TARGET_GUN
		CROSSPLANE_AXIS_DIR=LEFT_RIGHT
		DEPTH_AXIS_DIR=UP_DOWN
		ENERGY=6.00
		SSD=950.00
		WEDGE=None
		FIELD_INPLANE=100.00
		FIELD_CROSSPLANE=100.00
		FIELD_TYPE=RECTANGULAR
		GANTRY=0.00
		GANTRY_UPRIGHT_POSITION=0
		GANTRY_ROTATION=CW
		COLL_ANGLE=90.00
		COLL_OFFSET_INPLANE=0.00
		COLL_OFFSET_CROSSPLANE=0.00
		SCAN_DEVICE=STARCHECK
		ELECTROMETER=2D_ARRAY_INTERFACE
		DETECTOR=STARCHECK
		SCAN_CURVETYPE=CROSSPLANE_PROFILE
		SCAN_DEPTH=0.00
		SCAN_OFFAXIS_INPLANE=0.00
		SCAN_ANGLE=0.00
		SCAN_DIAGONAL=NOT_DIAGONAL
		MEAS_PRESET=TIME_PRESET
		MEAS_TIME=10.000
		MEAS_UNIT=GY
		PRESSURE=1013.25
		TEMPERATURE=20.00
		NORM_TEMPERATURE=20.00
		CORRECTION_FACTOR=1.0000
		CORRECTIONS=AIR_DENSITY_CORR;
		BEGIN_DATA
			-126.00		6.7215E-03
			-123.00		7.0291E-03
			-120.00		7.7247E-03
			-117.00		8.9484E-03
			-114.00		8.5511E-03
			-111.00		8.9719E-03
			-108.00		10.331E-03
			-105.00		10.997E-03
			-102.00		11.745E-03
			-99.00		12.791E-03
			-96.00		14.378E-03
			-93.00		15.253E-03
			-90.00		16.495E-03
			-87.00		18.056E-03
			-84.00		20.111E-03
			-81.00		21.830E-03
			-78.00		23.981E-03
			-75.00		26.831E-03
			-72.00		29.704E-03
			-69.00		34.189E-03
			-66.00		39.185E-03
			-63.00		45.005E-03
			-60.00		54.904E-03
			-57.00		72.317E-03
			-54.00		114.36E-03
			-51.00		290.28E-03
			-48.00		554.51E-03
			-45.00		616.78E-03
			-42.00		636.10E-03
			-39.00		648.65E-03
			-36.00		654.81E-03
			-33.00		655.00E-03
			-30.00		656.53E-03
			-27.00		659.76E-03
			-24.00		662.32E-03
			-21.00		661.61E-03
			-18.00		667.50E-03
			-15.00		668.38E-03
			-12.00		667.95E-03
			-9.00		670.06E-03
			-6.00		668.59E-03
			0.00		667.56E-03
			6.00		671.31E-03
			9.00		670.54E-03
			12.00		668.27E-03
			15.00		667.34E-03
			18.00		666.66E-03
			21.00		664.66E-03
			24.00		661.19E-03
			27.00		665.30E-03
			30.00		663.40E-03
			33.00		661.17E-03
			36.00		657.59E-03
			39.00		651.89E-03
			42.00		640.26E-03
			45.00		615.48E-03
			48.00		526.60E-03
			51.00		233.15E-03
			54.00		101.89E-03
			57.00		68.345E-03
			60.00		53.227E-03
			63.00		44.347E-03
			66.00		37.712E-03
			69.00		32.882E-03
			72.00		29.384E-03
			75.00		26.572E-03
			78.00		24.013E-03
			81.00		21.433E-03
			84.00		19.602E-03
			87.00		17.702E-03
			90.00		16.775E-03
			93.00		14.853E-03
			96.00		13.318E-03
			99.00		12.829E-03
			102.00		11.645E-03
			105.00		10.741E-03
			108.00		10.328E-03
			111.00		9.1012E-03
			114.00		8.8221E-03
			117.00		7.9725E-03
			120.00		7.6724E-03
			123.00		6.9916E-03
			126.00		7.0368E-03
		END_DATA
	END_SCAN  4
	BEGIN_SCAN  5
		TASK_NAME=MODE_INTERVAL
		PROGRAM=BeamAdjust 1.2
		MEAS_DATE=07-Oct-2010 14:20:58
		LINAC=A4
		MODALITY=X
		INPLANE_AXIS_DIR=TARGET_GUN
		CROSSPLANE_AXIS_DIR=LEFT_RIGHT
		DEPTH_AXIS_DIR=UP_DOWN
		ENERGY=6.00
		SSD=950.00
		WEDGE=None
		FIELD_INPLANE=100.00
		FIELD_CROSSPLANE=100.00
		FIELD_TYPE=RECTANGULAR
		GANTRY=0.00
		GANTRY_UPRIGHT_POSITION=0
		GANTRY_ROTATION=CW
		COLL_ANGLE=90.00
		COLL_OFFSET_INPLANE=0.00
		COLL_OFFSET_CROSSPLANE=0.00
		SCAN_DEVICE=STARCHECK
		ELECTROMETER=2D_ARRAY_INTERFACE
		DETECTOR=STARCHECK
		SCAN_CURVETYPE=CROSSPLANE_PROFILE
		SCAN_DEPTH=0.00
		SCAN_OFFAXIS_INPLANE=50.00
		SCAN_ANGLE=0.00
		SCAN_DIAGONAL=NOT_DIAGONAL
		MEAS_PRESET=TIME_PRESET
		MEAS_TIME=10.000
		MEAS_UNIT=GY
		PRESSURE=1013.25
		TEMPERATURE=20.00
		NORM_TEMPERATURE=20.00
		CORRECTION_FACTOR=1.0000
		CORRECTIONS=AIR_DENSITY_CORR;
		BEGIN_DATA
			-30.00		346.80E-03
			-15.00		361.10E-03
			15.00		329.95E-03
			30.00		336.13E-03
		END_DATA
	END_SCAN  5
	BEGIN_SCAN  6
		TASK_NAME=MODE_INTERVAL
		PROGRAM=BeamAdjust 1.2
		MEAS_DATE=07-Oct-2010 14:20:58
		LINAC=A4
		MODALITY=X
		INPLANE_AXIS_DIR=TARGET_GUN
		CROSSPLANE_AXIS_DIR=LEFT_RIGHT
		DEPTH_AXIS_DIR=UP_DOWN
		ENERGY=6.00
		SSD=950.00
		WEDGE=None
		FIELD_INPLANE=100.00
		FIELD_CROSSPLANE=100.00
		FIELD_TYPE=RECTANGULAR
		GANTRY=0.00
		GANTRY_UPRIGHT_POSITION=0
		GANTRY_ROTATION=CW
		COLL_ANGLE=90.00
		COLL_OFFSET_INPLANE=0.00
		COLL_OFFSET_CROSSPLANE=0.00
		SCAN_DEVICE=STARCHECK
		ELECTROMETER=2D_ARRAY_INTERFACE
		DETECTOR=STARCHECK
		SCAN_CURVETYPE=CROSSPLANE_PROFILE
		SCAN_DEPTH=0.00
		SCAN_OFFAXIS_INPLANE=100.00
		SCAN_ANGLE=0.00
		SCAN_DIAGONAL=NOT_DIAGONAL
		MEAS_PRESET=TIME_PRESET
		MEAS_TIME=10.000
		MEAS_UNIT=GY
		PRESSURE=1013.25
		TEMPERATURE=20.00
		NORM_TEMPERATURE=20.00
		CORRECTION_FACTOR=1.0000
		CORRECTIONS=AIR_DENSITY_CORR;
		BEGIN_DATA
			-60.00		10.357E-03
			-30.00		15.501E-03
			30.00		14.685E-03
			60.00		9.3757E-03
		END_DATA
	END_SCAN  6
	BEGIN_SCAN  7
		TASK_NAME=MODE_INTERVAL
		PROGRAM=BeamAdjust 1.2
		MEAS_DATE=07-Oct-2010 14:20:58
		LINAC=A4
		MODALITY=X
		INPLANE_AXIS_DIR=TARGET_GUN
		CROSSPLANE_AXIS_DIR=LEFT_RIGHT
		DEPTH_AXIS_DIR=UP_DOWN
		ENERGY=6.00
		SSD=950.00
		WEDGE=None
		FIELD_INPLANE=100.00
		FIELD_CROSSPLANE=100.00
		FIELD_TYPE=RECTANGULAR
		GANTRY=0.00
		GANTRY_UPRIGHT_POSITION=0
		GANTRY_ROTATION=CW
		COLL_ANGLE=90.00
		COLL_OFFSET_INPLANE=0.00
		COLL_OFFSET_CROSSPLANE=0.00
		SCAN_DEVICE=STARCHECK
		ELECTROMETER=2D_ARRAY_INTERFACE
		DETECTOR=STARCHECK
		SCAN_CURVETYPE=CROSSPLANE_PROFILE
		SCAN_DEPTH=0.00
		SCAN_OFFAXIS_INPLANE=130.00
		SCAN_ANGLE=0.00
		SCAN_DIAGONAL=NOT_DIAGONAL
		MEAS_PRESET=TIME_PRESET
		MEAS_TIME=10.000
		MEAS_UNIT=GY
		PRESSURE=1013.25
		TEMPERATURE=20.00
		NORM_TEMPERATURE=20.00
		CORRECTION_FACTOR=1.0000
		CORRECTIONS=AIR_DENSITY_CORR;
		BEGIN_DATA
			-130.00		1.8521E-03
			-80.00		4.0630E-03
			-40.00		7.4184E-03
			40.00		7.0441E-03
			80.00		4.3913E-03
			130.00		2.2175E-03
		END_DATA
	END_SCAN  7
	BEGIN_SCAN  8
		TASK_NAME=MODE_INTERVAL
		PROGRAM=BeamAdjust 1.2
		MEAS_DATE=07-Oct-2010 14:20:58
		LINAC=A4
		MODALITY=X
		INPLANE_AXIS_DIR=TARGET_GUN
		CROSSPLANE_AXIS_DIR=LEFT_RIGHT
		DEPTH_AXIS_DIR=UP_DOWN
		ENERGY=6.00
		SSD=950.00
		WEDGE=None
		FIELD_INPLANE=100.00
		FIELD_CROSSPLANE=100.00
		FIELD_TYPE=RECTANGULAR
		GANTRY=0.00
		GANTRY_UPRIGHT_POSITION=0
		GANTRY_ROTATION=CW
		COLL_ANGLE=90.00
		COLL_OFFSET_INPLANE=0.00
		COLL_OFFSET_CROSSPLANE=0.00
		SCAN_DEVICE=STARCHECK
		ELECTROMETER=2D_ARRAY_INTERFACE
		DETECTOR=STARCHECK
		SCAN_CURVETYPE=INPLANE_PROFILE
		SCAN_DEPTH=0.00
		SCAN_OFFAXIS_CROSSPLANE=-130.00
		SCAN_ANGLE=0.00
		SCAN_DIAGONAL=NOT_DIAGONAL
		MEAS_PRESET=TIME_PRESET
		MEAS_TIME=10.000
		MEAS_UNIT=GY
		PRESSURE=1013.25
		TEMPERATURE=20.00
		NORM_TEMPERATURE=20.00
		CORRECTION_FACTOR=1.0000
		CORRECTIONS=AIR_DENSITY_CORR;
		BEGIN_DATA
			-130.00		2.4064E-03
			-125.00		2.7273E-03
			-120.00		2.8340E-03
			-115.00		3.2814E-03
			-110.00		3.1819E-03
			-105.00		3.8271E-03
			-100.00		3.8740E-03
			-95.00		4.5090E-03
			-90.00		4.4127E-03
			-85.00		4.4903E-03
			-80.00		4.5160E-03
			-75.00		4.3530E-03
			-70.00		4.6673E-03
			-65.00		5.1707E-03
			-60.00		5.1116E-03
			-55.00		5.8072E-03
			-50.00		4.3160E-03
			-45.00		4.6863E-03
			-40.00		4.6893E-03
			-35.00		5.8167E-03
			-30.00		5.4428E-03
			-25.00		5.3982E-03
			-20.00		4.5448E-03
			-15.00		4.5949E-03
			-10.00		5.6771E-03
			-5.00		5.7967E-03
			0.00		5.7303E-03
			5.00		6.5105E-03
			10.00		5.9826E-03
			15.00		5.5434E-03
			20.00		5.6516E-03
			25.00		5.1387E-03
			30.00		5.4542E-03
			35.00		5.8652E-03
			40.00		4.8786E-03
			45.00		4.5614E-03
			50.00		4.8599E-03
			55.00		4.3041E-03
			60.00		4.2985E-03
			65.00		4.3228E-03
			70.00		4.0414E-03
			75.00		3.5466E-03
			80.00		3.4170E-03
			85.00		3.7495E-03
			90.00		3.4060E-03
			95.00		3.2159E-03
			100.00		2.8457E-03
			105.00		3.1169E-03
			110.00		2.4128E-03
			115.00		2.2475E-03
			120.00		2.4115E-03
			125.00		2.5604E-03
			130.00		1.8521E-03
		END_DATA
	END_SCAN  8
	BEGIN_SCAN  9
		TASK_NAME=MODE_INTERVAL
		PROGRAM=BeamAdjust 1.2
		MEAS_DATE=07-Oct-2010 14:20:58
		LINAC=A4
		MODALITY=X
		INPLANE_AXIS_DIR=TARGET_GUN
		CROSSPLANE_AXIS_DIR=LEFT_RIGHT
		DEPTH_AXIS_DIR=UP_DOWN
		ENERGY=6.00
		SSD=950.00
		WEDGE=None
		FIELD_INPLANE=100.00
		FIELD_CROSSPLANE=100.00
		FIELD_TYPE=RECTANGULAR
		GANTRY=0.00
		GANTRY_UPRIGHT_POSITION=0
		GANTRY_ROTATION=CW
		COLL_ANGLE=90.00
		COLL_OFFSET_INPLANE=0.00
		COLL_OFFSET_CROSSPLANE=0.00
		SCAN_DEVICE=STARCHECK
		ELECTROMETER=2D_ARRAY_INTERFACE
		DETECTOR=STARCHECK
		SCAN_CURVETYPE=INPLANE_PROFILE
		SCAN_DEPTH=0.00
		SCAN_OFFAXIS_CROSSPLANE=-100.00
		SCAN_ANGLE=0.00
		SCAN_DIAGONAL=NOT_DIAGONAL
		MEAS_PRESET=TIME_PRESET
		MEAS_TIME=10.000
		MEAS_UNIT=GY
		PRESSURE=1013.25
		TEMPERATURE=20.00
		NORM_TEMPERATURE=20.00
		CORRECTION_FACTOR=1.0000
		CORRECTIONS=AIR_DENSITY_CORR;
		BEGIN_DATA
			-60.00		7.8886E-03
			-30.00		10.703E-03
			30.00		10.386E-03
			60.00		7.7310E-03
		END_DATA
	END_SCAN  9
	BEGIN_SCAN  10
		TASK_NAME=MODE_INTERVAL
		PROGRAM=BeamAdjust 1.2
		MEAS_DATE=07-Oct-2010 14:20:58
		LINAC=A4
		MODALITY=X
		INPLANE_AXIS_DIR=TARGET_GUN
		CROSSPLANE_AXIS_DIR=LEFT_RIGHT
		DEPTH_AXIS_DIR=UP_DOWN
		ENERGY=6.00
		SSD=950.00
		WEDGE=None
		FIELD_INPLANE=100.00
		FIELD_CROSSPLANE=100.00
		FIELD_TYPE=RECTANGULAR
		GANTRY=0.00
		GANTRY_UPRIGHT_POSITION=0
		GANTRY_ROTATION=CW
		COLL_ANGLE=90.00
		COLL_OFFSET_INPLANE=0.00
		COLL_OFFSET_CROSSPLANE=0.00
		SCAN_DEVICE=STARCHECK
		ELECTROMETER=2D_ARRAY_INTERFACE
		DETECTOR=STARCHECK
		SCAN_CURVETYPE=INPLANE_PROFILE
		SCAN_DEPTH=0.00
		SCAN_OFFAXIS_CROSSPLANE=-50.00
		SCAN_ANGLE=0.00
		SCAN_DIAGONAL=NOT_DIAGONAL
		MEAS_PRESET=TIME_PRESET
		MEAS_TIME=10.000
		MEAS_UNIT=GY
		PRESSURE=1013.25
		TEMPERATURE=20.00
		NORM_TEMPERATURE=20.00
		CORRECTION_FACTOR=1.0000
		CORRECTIONS=AIR_DENSITY_CORR;
		BEGIN_DATA
			-30.00		396.12E-03
			-15.00		392.92E-03
			15.00		382.82E-03
			30.00		372.60E-03
		END_DATA
	END_SCAN  10
	BEGIN_SCAN  11
		TASK_NAME=MODE_INTERVAL
		PROGRAM=BeamAdjust 1.2
		MEAS_DATE=07-Oct-2010 14:20:58
		LINAC=A4
		MODALITY=X
		INPLANE_AXIS_DIR=TARGET_GUN
		CROSSPLANE_AXIS_DIR=LEFT_RIGHT
		DEPTH_AXIS_DIR=UP_DOWN
		ENERGY=6.00
		SSD=950.00
		WEDGE=None
		FIELD_INPLANE=100.00
		FIELD_CROSSPLANE=100.00
		FIELD_TYPE=RECTANGULAR
		GANTRY=0.00
		GANTRY_UPRIGHT_POSITION=0
		GANTRY_ROTATION=CW
		COLL_ANGLE=90.00
		COLL_OFFSET_INPLANE=0.00
		COLL_OFFSET_CROSSPLANE=0.00
		SCAN_DEVICE=STARCHECK
		ELECTROMETER=2D_ARRAY_INTERFACE
		DETECTOR=STARCHECK
		SCAN_CURVETYPE=INPLANE_PROFILE
		SCAN_DEPTH=0.00
		SCAN_OFFAXIS_CROSSPLANE=0.00
		SCAN_ANGLE=0.00
		SCAN_DIAGONAL=NOT_DIAGONAL
		MEAS_PRESET=TIME_PRESET
		MEAS_TIME=10.000
		MEAS_UNIT=GY
		PRESSURE=1013.25
		TEMPERATURE=20.00
		NORM_TEMPERATURE=20.00
		CORRECTION_FACTOR=1.0000
		CORRECTIONS=AIR_DENSITY_CORR;
		BEGIN_DATA
			-126.00		8.8063E-03
			-123.00		8.7414E-03
			-120.00		10.122E-03
			-117.00		11.154E-03
			-114.00		11.617E-03
			-111.00		12.439E-03
			-108.00		13.243E-03
			-105.00		14.216E-03
			-102.00		15.956E-03
			-99.00		16.389E-03
			-96.00		17.873E-03
			-93.00		20.040E-03
			-90.00		21.339E-03
			-87.00		22.787E-03
			-84.00		25.195E-03
			-81.00		27.593E-03
			-78.00		29.633E-03
			-75.00		32.412E-03
			-72.00		35.634E-03
			-69.00		38.824E-03
			-66.00		43.750E-03
			-63.00		50.260E-03
			-60.00		58.628E-03
			-57.00		74.183E-03
			-54.00		110.59E-03
			-51.00		227.19E-03
			-48.00		495.75E-03
			-45.00		611.12E-03
			-42.00		639.03E-03
			-39.00		650.09E-03
			-36.00		656.31E-03
			-33.00		660.66E-03
			-30.00		664.71E-03
			-27.00		666.05E-03
			-24.00		665.34E-03
			-21.00		664.39E-03
			-18.00		670.60E-03
			-15.00		669.06E-03
			-12.00		671.54E-03
			-9.00		671.56E-03
			-6.00		668.49E-03
			0.00		667.56E-03
			6.00		671.73E-03
			9.00		671.72E-03
			12.00		671.31E-03
			15.00		669.15E-03
			18.00		664.61E-03
			21.00		663.95E-03
			24.00		660.60E-03
			27.00		662.63E-03
			30.00		658.51E-03
			33.00		656.53E-03
			36.00		654.64E-03
			39.00		644.90E-03
			42.00		635.06E-03
			45.00		611.37E-03
			48.00		510.00E-03
			51.00		248.12E-03
			54.00		116.06E-03
			57.00		76.211E-03
			60.00		59.624E-03
			63.00		49.983E-03
			66.00		44.817E-03
			69.00		39.640E-03
			72.00		35.369E-03
			75.00		31.822E-03
			78.00		28.518E-03
			81.00		27.141E-03
			84.00		24.227E-03
			87.00		22.118E-03
			90.00		21.206E-03
			93.00		19.507E-03
			96.00		17.648E-03
			99.00		16.592E-03
			102.00		14.964E-03
			105.00		13.737E-03
			108.00		13.047E-03
			111.00		12.011E-03
			114.00		11.508E-03
			117.00		10.371E-03
			120.00		9.7923E-03
			123.00		9.7682E-03
			126.00		8.3139E-03
		END_DATA
	END_SCAN  11
	BEGIN_SCAN  12
		TASK_NAME=MODE_INTERVAL
		PROGRAM=BeamAdjust 1.2
		MEAS_DATE=07-Oct-2010 14:20:58
		LINAC=A4
		MODALITY=X
		INPLANE_AXIS_DIR=TARGET_GUN
		CROSSPLANE_AXIS_DIR=LEFT_RIGHT
		DEPTH_AXIS_DIR=UP_DOWN
		ENERGY=6.00
		SSD=950.00
		WEDGE=None
		FIELD_INPLANE=100.00
		FIELD_CROSSPLANE=100.00
		FIELD_TYPE=RECTANGULAR
		GANTRY=0.00
		GANTRY_UPRIGHT_POSITION=0
		GANTRY_ROTATION=CW
		COLL_ANGLE=90.00
		COLL_OFFSET_INPLANE=0.00
		COLL_OFFSET_CROSSPLANE=0.00
		SCAN_DEVICE=STARCHECK
		ELECTROMETER=2D_ARRAY_INTERFACE
		DETECTOR=STARCHECK
		SCAN_CURVETYPE=INPLANE_PROFILE
		SCAN_DEPTH=0.00
		SCAN_OFFAXIS_CROSSPLANE=50.00
		SCAN_ANGLE=0.00
		SCAN_DIAGONAL=NOT_DIAGONAL
		MEAS_PRESET=TIME_PRESET
		MEAS_TIME=10.000
		MEAS_UNIT=GY
		PRESSURE=1013.25
		TEMPERATURE=20.00
		NORM_TEMPERATURE=20.00
		CORRECTION_FACTOR=1.0000
		CORRECTIONS=AIR_DENSITY_CORR;
		BEGIN_DATA
			-30.00		327.31E-03
			-15.00		336.70E-03
			15.00		344.87E-03
			30.00		345.91E-03
		END_DATA
	END_SCAN  12
	BEGIN_SCAN  13
		TASK_NAME=MODE_INTERVAL
		PROGRAM=BeamAdjust 1.2
		MEAS_DATE=07-Oct-2010 14:20:58
		LINAC=A4
		MODALITY=X
		INPLANE_AXIS_DIR=TARGET_GUN
		CROSSPLANE_AXIS_DIR=LEFT_RIGHT
		DEPTH_AXIS_DIR=UP_DOWN
		ENERGY=6.00
		SSD=950.00
		WEDGE=None
		FIELD_INPLANE=100.00
		FIELD_CROSSPLANE=100.00
		FIELD_TYPE=RECTANGULAR
		GANTRY=0.00
		GANTRY_UPRIGHT_POSITION=0
		GANTRY_ROTATION=CW
		COLL_ANGLE=90.00
		COLL_OFFSET_INPLANE=0.00
		COLL_OFFSET_CROSSPLANE=0.00
		SCAN_DEVICE=STARCHECK
		ELECTROMETER=2D_ARRAY_INTERFACE
		DETECTOR=STARCHECK
		SCAN_CURVETYPE=INPLANE_PROFILE
		SCAN_DEPTH=0.00
		SCAN_OFFAXIS_CROSSPLANE=100.00
		SCAN_ANGLE=0.00
		SCAN_DIAGONAL=NOT_DIAGONAL
		MEAS_PRESET=TIME_PRESET
		MEAS_TIME=10.000
		MEAS_UNIT=GY
		PRESSURE=1013.25
		TEMPERATURE=20.00
		NORM_TEMPERATURE=20.00
		CORRECTION_FACTOR=1.0000
		CORRECTIONS=AIR_DENSITY_CORR;
		BEGIN_DATA
			-60.00		7.7479E-03
			-30.00		10.327E-03
			30.00		10.544E-03
			60.00		7.2178E-03
		END_DATA
	END_SCAN  13
	BEGIN_SCAN  14
		TASK_NAME=MODE_INTERVAL
		PROGRAM=BeamAdjust 1.2
		MEAS_DATE=07-Oct-2010 14:20:58
		LINAC=A4
		MODALITY=X
		INPLANE_AXIS_DIR=TARGET_GUN
		CROSSPLANE_AXIS_DIR=LEFT_RIGHT
		DEPTH_AXIS_DIR=UP_DOWN
		ENERGY=6.00
		SSD=950.00
		WEDGE=None
		FIELD_INPLANE=100.00
		FIELD_CROSSPLANE=100.00
		FIELD_TYPE=RECTANGULAR
		GANTRY=0.00
		GANTRY_UPRIGHT_POSITION=0
		GANTRY_ROTATION=CW
		COLL_ANGLE=90.00
		COLL_OFFSET_INPLANE=0.00
		COLL_OFFSET_CROSSPLANE=0.00
		SCAN_DEVICE=STARCHECK
		ELECTROMETER=2D_ARRAY_INTERFACE
		DETECTOR=STARCHECK
		SCAN_CURVETYPE=INPLANE_PROFILE
		SCAN_DEPTH=0.00
		SCAN_OFFAXIS_CROSSPLANE=130.00
		SCAN_ANGLE=0.00
		SCAN_DIAGONAL=NOT_DIAGONAL
		MEAS_PRESET=TIME_PRESET
		MEAS_TIME=10.000
		MEAS_UNIT=GY
		PRESSURE=1013.25
		TEMPERATURE=20.00
		NORM_TEMPERATURE=20.00
		CORRECTION_FACTOR=1.0000
		CORRECTIONS=AIR_DENSITY_CORR;
		BEGIN_DATA
			-130.00		1.9658E-03
			-125.00		2.6546E-03
			-120.00		2.2142E-03
			-115.00		2.2987E-03
			-110.00		2.3960E-03
			-105.00		2.9293E-03
			-100.00		3.2586E-03
			-95.00		2.4804E-03
			-90.00		2.8228E-03
			-85.00		3.9714E-03
			-80.00		3.5545E-03
			-75.00		3.4223E-03
			-70.00		3.7613E-03
			-65.00		4.1015E-03
			-60.00		4.9112E-03
			-55.00		3.7922E-03
			-50.00		4.0862E-03
			-45.00		5.0987E-03
			-40.00		4.7073E-03
			-35.00		5.0214E-03
			-30.00		5.3112E-03
			-25.00		5.1599E-03
			-20.00		5.2837E-03
			-15.00		5.3162E-03
			-10.00		4.6015E-03
			-5.00		5.5363E-03
			0.00		6.2066E-03
			5.00		5.7093E-03
			10.00		5.7857E-03
			15.00		5.0437E-03
			20.00		5.3305E-03
			25.00		5.5147E-03
			30.00		5.0964E-03
			35.00		5.0954E-03
			40.00		5.5445E-03
			45.00		5.5199E-03
			50.00		5.0772E-03
			55.00		5.0230E-03
			60.00		4.4143E-03
			65.00		4.3063E-03
			70.00		4.3969E-03
			75.00		4.1461E-03
			80.00		3.8581E-03
			85.00		3.9593E-03
			90.00		3.7981E-03
			95.00		2.9911E-03
			100.00		3.2794E-03
			105.00		2.8824E-03
			110.00		2.8586E-03
			115.00		3.1145E-03
			120.00		2.7182E-03
			125.00		2.2034E-03
			130.00		2.2175E-03
		END_DATA
	END_SCAN  14
	BEGIN_SCAN  15
		TASK_NAME=MODE_INTERVAL
		PROGRAM=BeamAdjust 1.2
		MEAS_DATE=07-Oct-2010 14:20:58
		LINAC=A4
		MODALITY=X
		INPLANE_AXIS_DIR=TARGET_GUN
		CROSSPLANE_AXIS_DIR=LEFT_RIGHT
		DEPTH_AXIS_DIR=UP_DOWN
		ENERGY=6.00
		SSD=950.00
		WEDGE=None
		FIELD_INPLANE=100.00
		FIELD_CROSSPLANE=100.00
		FIELD_TYPE=RECTANGULAR
		GANTRY=0.00
		GANTRY_UPRIGHT_POSITION=0
		GANTRY_ROTATION=CW
		COLL_ANGLE=90.00
		COLL_OFFSET_INPLANE=0.00
		COLL_OFFSET_CROSSPLANE=0.00
		SCAN_DEVICE=STARCHECK
		ELECTROMETER=2D_ARRAY_INTERFACE
		DETECTOR=STARCHECK
		SCAN_CURVETYPE=INPLANE_PROFILE
		SCAN_DEPTH=0.00
		SCAN_OFFAXIS_CROSSPLANE=0.00
		SCAN_ANGLE=0.00
		SCAN_DIAGONAL=FIRST_DIAGONAL
		MEAS_PRESET=TIME_PRESET
		MEAS_TIME=10.000
		MEAS_UNIT=GY
		PRESSURE=1013.25
		TEMPERATURE=20.00
		NORM_TEMPERATURE=20.00
		CORRECTION_FACTOR=1.0000
		CORRECTIONS=AIR_DENSITY_CORR;
		BEGIN_DATA
			-172.40		2.7369E-03
			-169.40		2.8244E-03
			-166.40		3.5671E-03
			-163.40		3.6987E-03
			-160.40		3.9356E-03
			-157.40		3.6788E-03
			-154.40		3.8215E-03
			-151.40		4.1932E-03
			-148.40		4.3760E-03
			-145.40		4.8740E-03
			-142.40		5.8110E-03
			-139.40		6.5742E-03
			-136.40		5.9276E-03
			-133.40		6.6407E-03
			-130.40		7.1232E-03
			-127.40		7.3956E-03
			-124.40		7.8809E-03
			-121.40		8.8131E-03
			-118.40		9.7113E-03
			-115.40		10.423E-03
			-112.40		11.186E-03
			-109.40		12.483E-03
			-106.40		13.433E-03
			-103.40		14.264E-03
			-100.40		15.640E-03
			-97.40		18.083E-03
			-94.40		19.661E-03
			-91.40		21.760E-03
			-88.40		24.216E-03
			-85.40		27.225E-03
			-82.40		31.816E-03
			-79.40		37.360E-03
			-76.40		47.418E-03
			-73.40		77.138E-03
			-70.40		184.19E-03
			-67.40		392.50E-03
			-64.40		542.24E-03
			-61.40		599.49E-03
			-58.40		622.36E-03
			-55.40		635.30E-03
			-52.40		642.83E-03
			-49.40		648.69E-03
			-46.40		650.80E-03
			-43.40		653.45E-03
			-40.40		656.70E-03
			-37.40		661.34E-03
			-34.40		661.19E-03
			-31.40		663.13E-03
			-28.40		661.69E-03
			-25.40		664.49E-03
			-22.40		664.39E-03
			-19.40		665.38E-03
			-16.40		668.88E-03
			-13.40		672.08E-03
			0.00		667.56E-03
			13.40		672.75E-03
			16.40		667.97E-03
			19.40		667.59E-03
			22.40		666.27E-03
			25.40		665.23E-03
			28.40		664.27E-03
			31.40		661.74E-03
			34.40		659.21E-03
			37.40		660.90E-03
			40.40		658.33E-03
			43.40		655.67E-03
			46.40		653.61E-03
			49.40		647.49E-03
			52.40		644.46E-03
			55.40		632.28E-03
			58.40		619.64E-03
			61.40		593.63E-03
			64.40		524.63E-03
			67.40		357.26E-03
			70.40		160.07E-03
			73.40		71.586E-03
			76.40		46.295E-03
			79.40		36.010E-03
			82.40		30.594E-03
			85.40		26.765E-03
			88.40		23.920E-03
			91.40		21.015E-03
			94.40		19.466E-03
			97.40		17.415E-03
			100.40		15.284E-03
			103.40		14.528E-03
			106.40		13.532E-03
			109.40		11.906E-03
			112.40		10.323E-03
			115.40		10.121E-03
			118.40		8.8294E-03
			121.40		8.1186E-03
			124.40		7.7607E-03
			127.40		7.5859E-03
			130.40		6.9208E-03
			133.40		6.3188E-03
			136.40		5.4385E-03
			139.40		4.8743E-03
			142.40		4.5168E-03
			145.40		4.5885E-03
			148.40		4.4772E-03
			151.40		3.5611E-03
			154.40		4.0479E-03
			157.40		3.6202E-03
			160.40		2.0365E-03
			163.40		2.4651E-03
			166.40		3.0075E-03
			169.40		2.1277E-03
			172.40		2.3982E-03
		END_DATA
	END_SCAN  15
	BEGIN_SCAN  16
		TASK_NAME=MODE_INTERVAL
		PROGRAM=BeamAdjust 1.2
		MEAS_DATE=07-Oct-2010 14:20:58
		LINAC=A4
		MODALITY=X
		INPLANE_AXIS_DIR=GUN_TARGET
		CROSSPLANE_AXIS_DIR=LEFT_RIGHT
		DEPTH_AXIS_DIR=UP_DOWN
		ENERGY=6.00
		SSD=950.00
		WEDGE=None
		FIELD_INPLANE=100.00
		FIELD_CROSSPLANE=100.00
		FIELD_TYPE=RECTANGULAR
		GANTRY=0.00
		GANTRY_UPRIGHT_POSITION=0
		GANTRY_ROTATION=CW
		COLL_ANGLE=90.00
		COLL_OFFSET_INPLANE=0.00
		COLL_OFFSET_CROSSPLANE=0.00
		SCAN_DEVICE=STARCHECK
		ELECTROMETER=2D_ARRAY_INTERFACE
		DETECTOR=STARCHECK
		SCAN_CURVETYPE=INPLANE_PROFILE
		SCAN_DEPTH=0.00
		SCAN_OFFAXIS_CROSSPLANE=0.00
		SCAN_ANGLE=0.00
		SCAN_DIAGONAL=SECOND_DIAGONAL
		MEAS_PRESET=TIME_PRESET
		MEAS_TIME=10.000
		MEAS_UNIT=GY
		PRESSURE=1013.25
		TEMPERATURE=20.00
		NORM_TEMPERATURE=20.00
		CORRECTION_FACTOR=1.0000
		CORRECTIONS=AIR_DENSITY_CORR;
		BEGIN_DATA
			-172.40		2.7968E-03
			-169.40		2.7984E-03
			-166.40		3.1632E-03
			-163.40		2.7803E-03
			-160.40		3.1526E-03
			-157.40		3.5722E-03
			-154.40		3.7364E-03
			-151.40		4.0810E-03
			-148.40		4.4072E-03
			-145.40		4.4507E-03
			-142.40		4.9088E-03
			-139.40		5.2250E-03
			-136.40		5.8340E-03
			-133.40		6.5048E-03
			-130.40		6.6816E-03
			-127.40		7.3891E-03
			-124.40		8.8034E-03
			-121.40		8.8841E-03
			-118.40		8.9734E-03
			-115.40		9.8103E-03
			-112.40		10.821E-03
			-109.40		11.958E-03
			-106.40		12.951E-03
			-103.40		14.018E-03
			-100.40		15.903E-03
			-97.40		17.145E-03
			-94.40		18.488E-03
			-91.40		21.221E-03
			-88.40		22.817E-03
			-85.40		25.874E-03
			-82.40		29.701E-03
			-79.40		35.598E-03
			-76.40		44.730E-03
			-73.40		66.526E-03
			-70.40		144.16E-03
			-67.40		342.60E-03
			-64.40		523.70E-03
			-61.40		595.70E-03
			-58.40		624.96E-03
			-55.40		637.12E-03
			-52.40		648.88E-03
			-49.40		653.72E-03
			-46.40		657.06E-03
			-43.40		660.60E-03
			-40.40		662.08E-03
			-37.40		664.97E-03
			-34.40		665.12E-03
			-31.40		666.33E-03
			-28.40		668.47E-03
			-25.40		666.91E-03
			-22.40		665.43E-03
			-19.40		668.80E-03
			-16.40		670.27E-03
			-13.40		672.85E-03
			0.00		667.56E-03
			13.40		671.41E-03
			16.40		668.76E-03
			19.40		665.26E-03
			22.40		662.89E-03
			25.40		662.33E-03
			28.40		660.81E-03
			31.40		659.31E-03
			34.40		656.78E-03
			37.40		656.28E-03
			40.40		654.59E-03
			43.40		652.54E-03
			46.40		650.91E-03
			49.40		646.73E-03
			52.40		638.56E-03
			55.40		630.46E-03
			58.40		620.83E-03
			61.40		596.50E-03
			64.40		538.36E-03
			67.40		382.33E-03
			70.40		177.30E-03
			73.40		75.867E-03
			76.40		47.116E-03
			79.40		36.950E-03
			82.40		31.718E-03
			85.40		27.671E-03
			88.40		24.241E-03
			91.40		21.940E-03
			94.40		19.739E-03
			97.40		18.299E-03
			100.40		15.455E-03
			103.40		13.969E-03
			106.40		14.045E-03
			109.40		12.180E-03
			112.40		11.008E-03
			115.40		10.409E-03
			118.40		9.4377E-03
			121.40		8.4351E-03
			124.40		7.8447E-03
			127.40		7.3699E-03
			130.40		7.3204E-03
			133.40		6.5372E-03
			136.40		5.7496E-03
			139.40		6.1675E-03
			142.40		5.5742E-03
			145.40		5.1282E-03
			148.40		5.2801E-03
			151.40		4.3189E-03
			154.40		3.8367E-03
			157.40		3.6249E-03
			160.40		3.8130E-03
			163.40		4.1753E-03
			166.40		3.2812E-03
			169.40		2.7380E-03
			172.40		2.4415E-03
		END_DATA
	END_SCAN  16
END_SCAN_DATA
