BEGIN_SCAN_DATA
	FORMAT=CC-Export V1.9                  
	FILE_CREATION_DATE=07-Oct-2010 14:21:31
	LAST_MODIFIED=07-Oct-2010 14:21:31
	BEGIN_SCAN  1
		TASK_NAME=MODE_INTERVAL
		PROGRAM=BeamAdjust 1.2
		MEAS_DATE=07-Oct-2010 14:21:31
		LINAC=A4
		MODALITY=X
		INPLANE_AXIS_DIR=TARGET_GUN
		CROSSPLANE_AXIS_DIR=LEFT_RIGHT
		DEPTH_AXIS_DIR=UP_DOWN
		ENERGY=6.00
		SSD=950.00
		WEDGE=None
		FIELD_INPLANE=100.00
		FIELD_CROSSPLANE=100.00
		FIELD_TYPE=RECTANGULAR
		GANTRY=0.00
		GANTRY_UPRIGHT_POSITION=0
		GANTRY_ROTATION=CW
		COLL_ANGLE=90.00
		COLL_OFFSET_INPLANE=0.00
		COLL_OFFSET_CROSSPLANE=0.00
		SCAN_DEVICE=STARCHECK
		ELECTROMETER=2D_ARRAY_INTERFACE
		DETECTOR=STARCHECK
		SCAN_CURVETYPE=CROSSPLANE_PROFILE
		SCAN_DEPTH=0.00
		SCAN_OFFAXIS_INPLANE=-130.00
		SCAN_ANGLE=0.00
		SCAN_DIAGONAL=NOT_DIAGONAL
		MEAS_PRESET=TIME_PRESET
		MEAS_TIME=10.000
		MEAS_UNIT=GY
		PRESSURE=1013.25
		TEMPERATURE=20.00
		NORM_TEMPERATURE=20.00
		CORRECTION_FACTOR=1.0000
		CORRECTIONS=AIR_DENSITY_CORR;
		BEGIN_DATA
			-130.00		2.4614E-03
			-80.00		3.7144E-03
			-40.00		6.9955E-03
			40.00		6.9005E-03
			80.00		3.5103E-03
			130.00		1.7519E-03
		END_DATA
	END_SCAN  1
	BEGIN_SCAN  2
		TASK_NAME=MODE_INTERVAL
		PROGRAM=BeamAdjust 1.2
		MEAS_DATE=07-Oct-2010 14:21:31
		LINAC=A4
		MODALITY=X
		INPLANE_AXIS_DIR=TARGET_GUN
		CROSSPLANE_AXIS_DIR=LEFT_RIGHT
		DEPTH_AXIS_DIR=UP_DOWN
		ENERGY=6.00
		SSD=950.00
		WEDGE=None
		FIELD_INPLANE=100.00
		FIELD_CROSSPLANE=100.00
		FIELD_TYPE=RECTANGULAR
		GANTRY=0.00
		GANTRY_UPRIGHT_POSITION=0
		GANTRY_ROTATION=CW
		COLL_ANGLE=90.00
		COLL_OFFSET_INPLANE=0.00
		COLL_OFFSET_CROSSPLANE=0.00
		SCAN_DEVICE=STARCHECK
		ELECTROMETER=2D_ARRAY_INTERFACE
		DETECTOR=STARCHECK
		SCAN_CURVETYPE=CROSSPLANE_PROFILE
		SCAN_DEPTH=0.00
		SCAN_OFFAXIS_INPLANE=-100.00
		SCAN_ANGLE=0.00
		SCAN_DIAGONAL=NOT_DIAGONAL
		MEAS_PRESET=TIME_PRESET
		MEAS_TIME=10.000
		MEAS_UNIT=GY
		PRESSURE=1013.25
		TEMPERATURE=20.00
		NORM_TEMPERATURE=20.00
		CORRECTION_FACTOR=1.0000
		CORRECTIONS=AIR_DENSITY_CORR;
		BEGIN_DATA
			-60.00		10.226E-03
			-30.00		14.219E-03
			30.00		14.340E-03
			60.00		9.7802E-03
		END_DATA
	END_SCAN  2
	BEGIN_SCAN  3
		TASK_NAME=MODE_INTERVAL
		PROGRAM=BeamAdjust 1.2
		MEAS_DATE=07-Oct-2010 14:21:31
		LINAC=A4
		MODALITY=X
		INPLANE_AXIS_DIR=TARGET_GUN
		CROSSPLANE_AXIS_DIR=LEFT_RIGHT
		DEPTH_AXIS_DIR=UP_DOWN
		ENERGY=6.00
		SSD=950.00
		WEDGE=None
		FIELD_INPLANE=100.00
		FIELD_CROSSPLANE=100.00
		FIELD_TYPE=RECTANGULAR
		GANTRY=0.00
		GANTRY_UPRIGHT_POSITION=0
		GANTRY_ROTATION=CW
		COLL_ANGLE=90.00
		COLL_OFFSET_INPLANE=0.00
		COLL_OFFSET_CROSSPLANE=0.00
		SCAN_DEVICE=STARCHECK
		ELECTROMETER=2D_ARRAY_INTERFACE
		DETECTOR=STARCHECK
		SCAN_CURVETYPE=CROSSPLANE_PROFILE
		SCAN_DEPTH=0.00
		SCAN_OFFAXIS_INPLANE=-50.00
		SCAN_ANGLE=0.00
		SCAN_DIAGONAL=NOT_DIAGONAL
		MEAS_PRESET=TIME_PRESET
		MEAS_TIME=10.000
		MEAS_UNIT=GY
		PRESSURE=1013.25
		TEMPERATURE=20.00
		NORM_TEMPERATURE=20.00
		CORRECTION_FACTOR=1.0000
		CORRECTIONS=AIR_DENSITY_CORR;
		BEGIN_DATA
			-30.00		293.26E-03
			-15.00		256.24E-03
			15.00		280.51E-03
			30.00		290.30E-03
		END_DATA
	END_SCAN  3
	BEGIN_SCAN  4
		TASK_NAME=MODE_INTERVAL
		PROGRAM=BeamAdjust 1.2
		MEAS_DATE=07-Oct-2010 14:21:31
		LINAC=A4
		MODALITY=X
		INPLANE_AXIS_DIR=TARGET_GUN
		CROSSPLANE_AXIS_DIR=LEFT_RIGHT
		DEPTH_AXIS_DIR=UP_DOWN
		ENERGY=6.00
		SSD=950.00
		WEDGE=None
		FIELD_INPLANE=100.00
		FIELD_CROSSPLANE=100.00
		FIELD_TYPE=RECTANGULAR
		GANTRY=0.00
		GANTRY_UPRIGHT_POSITION=0
		GANTRY_ROTATION=CW
		COLL_ANGLE=90.00
		COLL_OFFSET_INPLANE=0.00
		COLL_OFFSET_CROSSPLANE=0.00
		SCAN_DEVICE=STARCHECK
		ELECTROMETER=2D_ARRAY_INTERFACE
		DETECTOR=STARCHECK
		SCAN_CURVETYPE=CROSSPLANE_PROFILE
		SCAN_DEPTH=0.00
		SCAN_OFFAXIS_INPLANE=0.00
		SCAN_ANGLE=0.00
		SCAN_DIAGONAL=NOT_DIAGONAL
		MEAS_PRESET=TIME_PRESET
		MEAS_TIME=10.000
		MEAS_UNIT=GY
		PRESSURE=1013.25
		TEMPERATURE=20.00
		NORM_TEMPERATURE=20.00
		CORRECTION_FACTOR=1.0000
		CORRECTIONS=AIR_DENSITY_CORR;
		BEGIN_DATA
			-126.00		6.2857E-03
			-123.00		7.5264E-03
			-120.00		7.6697E-03
			-117.00		8.3110E-03
			-114.00		8.8915E-03
			-111.00		9.3496E-03
			-108.00		10.283E-03
			-105.00		10.950E-03
			-102.00		11.671E-03
			-99.00		12.878E-03
			-96.00		13.870E-03
			-93.00		15.667E-03
			-90.00		16.633E-03
			-87.00		17.933E-03
			-84.00		20.176E-03
			-81.00		21.848E-03
			-78.00		24.026E-03
			-75.00		26.778E-03
			-72.00		29.891E-03
			-69.00		34.087E-03
			-66.00		39.219E-03
			-63.00		45.095E-03
			-60.00		55.108E-03
			-57.00		72.392E-03
			-54.00		113.62E-03
			-51.00		290.52E-03
			-48.00		555.56E-03
			-45.00		617.79E-03
			-42.00		637.43E-03
			-39.00		650.09E-03
			-36.00		656.02E-03
			-33.00		656.34E-03
			-30.00		658.25E-03
			-27.00		661.17E-03
			-24.00		663.56E-03
			-21.00		663.23E-03
			-18.00		669.16E-03
			-15.00		669.74E-03
			-12.00		668.94E-03
			-9.00		671.64E-03
			-6.00		670.21E-03
			0.00		669.14E-03
			6.00		672.76E-03
			9.00		671.88E-03
			12.00		669.81E-03
			15.00		668.67E-03
			18.00		667.81E-03
			21.00		666.27E-03
			24.00		662.61E-03
			27.00		666.48E-03
			30.00		665.01E-03
			33.00		662.73E-03
			36.00		658.83E-03
			39.00		652.91E-03
			42.00		641.79E-03
			45.00		616.35E-03
			48.00		528.19E-03
			51.00		234.18E-03
			54.00		102.36E-03
			57.00		68.488E-03
			60.00		52.994E-03
			63.00		44.262E-03
			66.00		38.096E-03
			69.00		32.847E-03
			72.00		29.506E-03
			75.00		26.576E-03
			78.00		23.578E-03
			81.00		21.825E-03
			84.00		19.639E-03
			87.00		17.588E-03
			90.00		16.581E-03
			93.00		15.006E-03
			96.00		13.268E-03
			99.00		12.571E-03
			102.00		11.788E-03
			105.00		10.905E-03
			108.00		10.279E-03
			111.00		9.0345E-03
			114.00		8.7469E-03
			117.00		7.9444E-03
			120.00		7.0097E-03
			123.00		7.3992E-03
			126.00		6.9954E-03
		END_DATA
	END_SCAN  4
	BEGIN_SCAN  5
		TASK_NAME=MODE_INTERVAL
		PROGRAM=BeamAdjust 1.2
		MEAS_DATE=07-Oct-2010 14:21:31
		LINAC=A4
		MODALITY=X
		INPLANE_AXIS_DIR=TARGET_GUN
		CROSSPLANE_AXIS_DIR=LEFT_RIGHT
		DEPTH_AXIS_DIR=UP_DOWN
		ENERGY=6.00
		SSD=950.00
		WEDGE=None
		FIELD_INPLANE=100.00
		FIELD_CROSSPLANE=100.00
		FIELD_TYPE=RECTANGULAR
		GANTRY=0.00
		GANTRY_UPRIGHT_POSITION=0
		GANTRY_ROTATION=CW
		COLL_ANGLE=90.00
		COLL_OFFSET_INPLANE=0.00
		COLL_OFFSET_CROSSPLANE=0.00
		SCAN_DEVICE=STARCHECK
		ELECTROMETER=2D_ARRAY_INTERFACE
		DETECTOR=STARCHECK
		SCAN_CURVETYPE=CROSSPLANE_PROFILE
		SCAN_DEPTH=0.00
		SCAN_OFFAXIS_INPLANE=50.00
		SCAN_ANGLE=0.00
		SCAN_DIAGONAL=NOT_DIAGONAL
		MEAS_PRESET=TIME_PRESET
		MEAS_TIME=10.000
		MEAS_UNIT=GY
		PRESSURE=1013.25
		TEMPERATURE=20.00
		NORM_TEMPERATURE=20.00
		CORRECTION_FACTOR=1.0000
		CORRECTIONS=AIR_DENSITY_CORR;
		BEGIN_DATA
			-30.00		369.79E-03
			-15.00		384.79E-03
			15.00		353.96E-03
			30.00		359.47E-03
		END_DATA
	END_SCAN  5
	BEGIN_SCAN  6
		TASK_NAME=MODE_INTERVAL
		PROGRAM=BeamAdjust 1.2
		MEAS_DATE=07-Oct-2010 14:21:31
		LINAC=A4
		MODALITY=X
		INPLANE_AXIS_DIR=TARGET_GUN
		CROSSPLANE_AXIS_DIR=LEFT_RIGHT
		DEPTH_AXIS_DIR=UP_DOWN
		ENERGY=6.00
		SSD=950.00
		WEDGE=None
		FIELD_INPLANE=100.00
		FIELD_CROSSPLANE=100.00
		FIELD_TYPE=RECTANGULAR
		GANTRY=0.00
		GANTRY_UPRIGHT_POSITION=0
		GANTRY_ROTATION=CW
		COLL_ANGLE=90.00
		COLL_OFFSET_INPLANE=0.00
		COLL_OFFSET_CROSSPLANE=0.00
		SCAN_DEVICE=STARCHECK
		ELECTROMETER=2D_ARRAY_INTERFACE
		DETECTOR=STARCHECK
		SCAN_CURVETYPE=CROSSPLANE_PROFILE
		SCAN_DEPTH=0.00
		SCAN_OFFAXIS_INPLANE=100.00
		SCAN_ANGLE=0.00
		SCAN_DIAGONAL=NOT_DIAGONAL
		MEAS_PRESET=TIME_PRESET
		MEAS_TIME=10.000
		MEAS_UNIT=GY
		PRESSURE=1013.25
		TEMPERATURE=20.00
		NORM_TEMPERATURE=20.00
		CORRECTION_FACTOR=1.0000
		CORRECTIONS=AIR_DENSITY_CORR;
		BEGIN_DATA
			-60.00		10.886E-03
			-30.00		15.617E-03
			30.00		15.480E-03
			60.00		9.2039E-03
		END_DATA
	END_SCAN  6
	BEGIN_SCAN  7
		TASK_NAME=MODE_INTERVAL
		PROGRAM=BeamAdjust 1.2
		MEAS_DATE=07-Oct-2010 14:21:31
		LINAC=A4
		MODALITY=X
		INPLANE_AXIS_DIR=TARGET_GUN
		CROSSPLANE_AXIS_DIR=LEFT_RIGHT
		DEPTH_AXIS_DIR=UP_DOWN
		ENERGY=6.00
		SSD=950.00
		WEDGE=None
		FIELD_INPLANE=100.00
		FIELD_CROSSPLANE=100.00
		FIELD_TYPE=RECTANGULAR
		GANTRY=0.00
		GANTRY_UPRIGHT_POSITION=0
		GANTRY_ROTATION=CW
		COLL_ANGLE=90.00
		COLL_OFFSET_INPLANE=0.00
		COLL_OFFSET_CROSSPLANE=0.00
		SCAN_DEVICE=STARCHECK
		ELECTROMETER=2D_ARRAY_INTERFACE
		DETECTOR=STARCHECK
		SCAN_CURVETYPE=CROSSPLANE_PROFILE
		SCAN_DEPTH=0.00
		SCAN_OFFAXIS_INPLANE=130.00
		SCAN_ANGLE=0.00
		SCAN_DIAGONAL=NOT_DIAGONAL
		MEAS_PRESET=TIME_PRESET
		MEAS_TIME=10.000
		MEAS_UNIT=GY
		PRESSURE=1013.25
		TEMPERATURE=20.00
		NORM_TEMPERATURE=20.00
		CORRECTION_FACTOR=1.0000
		CORRECTIONS=AIR_DENSITY_CORR;
		BEGIN_DATA
			-130.00		1.9899E-03
			-80.00		4.3724E-03
			-40.00		7.8583E-03
			40.00		7.6564E-03
			80.00		4.0060E-03
			130.00		2.2220E-03
		END_DATA
	END_SCAN  7
	BEGIN_SCAN  8
		TASK_NAME=MODE_INTERVAL
		PROGRAM=BeamAdjust 1.2
		MEAS_DATE=07-Oct-2010 14:21:31
		LINAC=A4
		MODALITY=X
		INPLANE_AXIS_DIR=TARGET_GUN
		CROSSPLANE_AXIS_DIR=LEFT_RIGHT
		DEPTH_AXIS_DIR=UP_DOWN
		ENERGY=6.00
		SSD=950.00
		WEDGE=None
		FIELD_INPLANE=100.00
		FIELD_CROSSPLANE=100.00
		FIELD_TYPE=RECTANGULAR
		GANTRY=0.00
		GANTRY_UPRIGHT_POSITION=0
		GANTRY_ROTATION=CW
		COLL_ANGLE=90.00
		COLL_OFFSET_INPLANE=0.00
		COLL_OFFSET_CROSSPLANE=0.00
		SCAN_DEVICE=STARCHECK
		ELECTROMETER=2D_ARRAY_INTERFACE
		DETECTOR=STARCHECK
		SCAN_CURVETYPE=INPLANE_PROFILE
		SCAN_DEPTH=0.00
		SCAN_OFFAXIS_CROSSPLANE=-130.00
		SCAN_ANGLE=0.00
		SCAN_DIAGONAL=NOT_DIAGONAL
		MEAS_PRESET=TIME_PRESET
		MEAS_TIME=10.000
		MEAS_UNIT=GY
		PRESSURE=1013.25
		TEMPERATURE=20.00
		NORM_TEMPERATURE=20.00
		CORRECTION_FACTOR=1.0000
		CORRECTIONS=AIR_DENSITY_CORR;
		BEGIN_DATA
			-130.00		2.4614E-03
			-125.00		2.3948E-03
			-120.00		3.0682E-03
			-115.00		3.3081E-03
			-110.00		3.0742E-03
			-105.00		3.4163E-03
			-100.00		4.5016E-03
			-95.00		4.4510E-03
			-90.00		4.3106E-03
			-85.00		4.2982E-03
			-80.00		4.3677E-03
			-75.00		4.7567E-03
			-70.00		4.8111E-03
			-65.00		4.9458E-03
			-60.00		5.1719E-03
			-55.00		5.9244E-03
			-50.00		4.0477E-03
			-45.00		4.9491E-03
			-40.00		4.6450E-03
			-35.00		5.0920E-03
			-30.00		6.1978E-03
			-25.00		5.2840E-03
			-20.00		4.9314E-03
			-15.00		4.9304E-03
			-10.00		5.4219E-03
			-5.00		5.9281E-03
			0.00		5.8877E-03
			5.00		6.4987E-03
			10.00		5.7574E-03
			15.00		5.2125E-03
			20.00		5.9503E-03
			25.00		5.1729E-03
			30.00		5.3019E-03
			35.00		5.2781E-03
			40.00		5.6442E-03
			45.00		4.6939E-03
			50.00		4.6650E-03
			55.00		4.4869E-03
			60.00		4.3817E-03
			65.00		3.9513E-03
			70.00		4.0934E-03
			75.00		3.9049E-03
			80.00		3.4126E-03
			85.00		3.6262E-03
			90.00		3.2114E-03
			95.00		3.2862E-03
			100.00		3.2192E-03
			105.00		2.3216E-03
			110.00		2.9795E-03
			115.00		2.3277E-03
			120.00		2.2851E-03
			125.00		2.2454E-03
			130.00		1.9899E-03
		END_DATA
	END_SCAN  8
	BEGIN_SCAN  9
		TASK_NAME=MODE_INTERVAL
		PROGRAM=BeamAdjust 1.2
		MEAS_DATE=07-Oct-2010 14:21:31
		LINAC=A4
		MODALITY=X
		INPLANE_AXIS_DIR=TARGET_GUN
		CROSSPLANE_AXIS_DIR=LEFT_RIGHT
		DEPTH_AXIS_DIR=UP_DOWN
		ENERGY=6.00
		SSD=950.00
		WEDGE=None
		FIELD_INPLANE=100.00
		FIELD_CROSSPLANE=100.00
		FIELD_TYPE=RECTANGULAR
		GANTRY=0.00
		GANTRY_UPRIGHT_POSITION=0
		GANTRY_ROTATION=CW
		COLL_ANGLE=90.00
		COLL_OFFSET_INPLANE=0.00
		COLL_OFFSET_CROSSPLANE=0.00
		SCAN_DEVICE=STARCHECK
		ELECTROMETER=2D_ARRAY_INTERFACE
		DETECTOR=STARCHECK
		SCAN_CURVETYPE=INPLANE_PROFILE
		SCAN_DEPTH=0.00
		SCAN_OFFAXIS_CROSSPLANE=-100.00
		SCAN_ANGLE=0.00
		SCAN_DIAGONAL=NOT_DIAGONAL
		MEAS_PRESET=TIME_PRESET
		MEAS_TIME=10.000
		MEAS_UNIT=GY
		PRESSURE=1013.25
		TEMPERATURE=20.00
		NORM_TEMPERATURE=20.00
		CORRECTION_FACTOR=1.0000
		CORRECTIONS=AIR_DENSITY_CORR;
		BEGIN_DATA
			-60.00		8.1078E-03
			-30.00		10.114E-03
			30.00		10.328E-03
			60.00		7.8560E-03
		END_DATA
	END_SCAN  9
	BEGIN_SCAN  10
		TASK_NAME=MODE_INTERVAL
		PROGRAM=BeamAdjust 1.2
		MEAS_DATE=07-Oct-2010 14:21:31
		LINAC=A4
		MODALITY=X
		INPLANE_AXIS_DIR=TARGET_GUN
		CROSSPLANE_AXIS_DIR=LEFT_RIGHT
		DEPTH_AXIS_DIR=UP_DOWN
		ENERGY=6.00
		SSD=950.00
		WEDGE=None
		FIELD_INPLANE=100.00
		FIELD_CROSSPLANE=100.00
		FIELD_TYPE=RECTANGULAR
		GANTRY=0.00
		GANTRY_UPRIGHT_POSITION=0
		GANTRY_ROTATION=CW
		COLL_ANGLE=90.00
		COLL_OFFSET_INPLANE=0.00
		COLL_OFFSET_CROSSPLANE=0.00
		SCAN_DEVICE=STARCHECK
		ELECTROMETER=2D_ARRAY_INTERFACE
		DETECTOR=STARCHECK
		SCAN_CURVETYPE=INPLANE_PROFILE
		SCAN_DEPTH=0.00
		SCAN_OFFAXIS_CROSSPLANE=-50.00
		SCAN_ANGLE=0.00
		SCAN_DIAGONAL=NOT_DIAGONAL
		MEAS_PRESET=TIME_PRESET
		MEAS_TIME=10.000
		MEAS_UNIT=GY
		PRESSURE=1013.25
		TEMPERATURE=20.00
		NORM_TEMPERATURE=20.00
		CORRECTION_FACTOR=1.0000
		CORRECTIONS=AIR_DENSITY_CORR;
		BEGIN_DATA
			-30.00		395.80E-03
			-15.00		392.98E-03
			15.00		383.35E-03
			30.00		372.97E-03
		END_DATA
	END_SCAN  10
	BEGIN_SCAN  11
		TASK_NAME=MODE_INTERVAL
		PROGRAM=BeamAdjust 1.2
		MEAS_DATE=07-Oct-2010 14:21:31
		LINAC=A4
		MODALITY=X
		INPLANE_AXIS_DIR=TARGET_GUN
		CROSSPLANE_AXIS_DIR=LEFT_RIGHT
		DEPTH_AXIS_DIR=UP_DOWN
		ENERGY=6.00
		SSD=950.00
		WEDGE=None
		FIELD_INPLANE=100.00
		FIELD_CROSSPLANE=100.00
		FIELD_TYPE=RECTANGULAR
		GANTRY=0.00
		GANTRY_UPRIGHT_POSITION=0
		GANTRY_ROTATION=CW
		COLL_ANGLE=90.00
		COLL_OFFSET_INPLANE=0.00
		COLL_OFFSET_CROSSPLANE=0.00
		SCAN_DEVICE=STARCHECK
		ELECTROMETER=2D_ARRAY_INTERFACE
		DETECTOR=STARCHECK
		SCAN_CURVETYPE=INPLANE_PROFILE
		SCAN_DEPTH=0.00
		SCAN_OFFAXIS_CROSSPLANE=0.00
		SCAN_ANGLE=0.00
		SCAN_DIAGONAL=NOT_DIAGONAL
		MEAS_PRESET=TIME_PRESET
		MEAS_TIME=10.000
		MEAS_UNIT=GY
		PRESSURE=1013.25
		TEMPERATURE=20.00
		NORM_TEMPERATURE=20.00
		CORRECTION_FACTOR=1.0000
		CORRECTIONS=AIR_DENSITY_CORR;
		BEGIN_DATA
			-126.00		9.0503E-03
			-123.00		8.5781E-03
			-120.00		10.049E-03
			-117.00		11.302E-03
			-114.00		11.430E-03
			-111.00		12.247E-03
			-108.00		13.224E-03
			-105.00		14.209E-03
			-102.00		15.731E-03
			-99.00		16.039E-03
			-96.00		17.682E-03
			-93.00		20.061E-03
			-90.00		21.177E-03
			-87.00		22.863E-03
			-84.00		24.868E-03
			-81.00		27.192E-03
			-78.00		29.499E-03
			-75.00		32.319E-03
			-72.00		35.172E-03
			-69.00		38.420E-03
			-66.00		43.472E-03
			-63.00		49.585E-03
			-60.00		57.598E-03
			-57.00		72.630E-03
			-54.00		105.06E-03
			-51.00		209.14E-03
			-48.00		472.87E-03
			-45.00		607.13E-03
			-42.00		638.09E-03
			-39.00		649.71E-03
			-36.00		656.29E-03
			-33.00		661.13E-03
			-30.00		665.08E-03
			-27.00		666.31E-03
			-24.00		666.20E-03
			-21.00		665.23E-03
			-18.00		670.84E-03
			-15.00		670.17E-03
			-12.00		672.36E-03
			-9.00		673.05E-03
			-6.00		669.94E-03
			0.00		669.14E-03
			6.00		673.59E-03
			9.00		672.79E-03
			12.00		673.04E-03
			15.00		671.21E-03
			18.00		666.60E-03
			21.00		665.71E-03
			24.00		662.82E-03
			27.00		664.55E-03
			30.00		660.56E-03
			33.00		658.74E-03
			36.00		656.96E-03
			39.00		646.96E-03
			42.00		639.45E-03
			45.00		617.24E-03
			48.00		530.04E-03
			51.00		271.71E-03
			54.00		123.66E-03
			57.00		78.043E-03
			60.00		61.112E-03
			63.00		51.341E-03
			66.00		44.793E-03
			69.00		40.213E-03
			72.00		36.066E-03
			75.00		31.938E-03
			78.00		28.535E-03
			81.00		26.820E-03
			84.00		25.156E-03
			87.00		22.681E-03
			90.00		21.252E-03
			93.00		19.098E-03
			96.00		18.087E-03
			99.00		16.669E-03
			102.00		14.664E-03
			105.00		13.822E-03
			108.00		13.566E-03
			111.00		12.269E-03
			114.00		11.407E-03
			117.00		10.522E-03
			120.00		9.9973E-03
			123.00		9.1481E-03
			126.00		8.8912E-03
		END_DATA
	END_SCAN  11
	BEGIN_SCAN  12
		TASK_NAME=MODE_INTERVAL
		PROGRAM=BeamAdjust 1.2
		MEAS_DATE=07-Oct-2010 14:21:31
		LINAC=A4
		MODALITY=X
		INPLANE_AXIS_DIR=TARGET_GUN
		CROSSPLANE_AXIS_DIR=LEFT_RIGHT
		DEPTH_AXIS_DIR=UP_DOWN
		ENERGY=6.00
		SSD=950.00
		WEDGE=None
		FIELD_INPLANE=100.00
		FIELD_CROSSPLANE=100.00
		FIELD_TYPE=RECTANGULAR
		GANTRY=0.00
		GANTRY_UPRIGHT_POSITION=0
		GANTRY_ROTATION=CW
		COLL_ANGLE=90.00
		COLL_OFFSET_INPLANE=0.00
		COLL_OFFSET_CROSSPLANE=0.00
		SCAN_DEVICE=STARCHECK
		ELECTROMETER=2D_ARRAY_INTERFACE
		DETECTOR=STARCHECK
		SCAN_CURVETYPE=INPLANE_PROFILE
		SCAN_DEPTH=0.00
		SCAN_OFFAXIS_CROSSPLANE=50.00
		SCAN_ANGLE=0.00
		SCAN_DIAGONAL=NOT_DIAGONAL
		MEAS_PRESET=TIME_PRESET
		MEAS_TIME=10.000
		MEAS_UNIT=GY
		PRESSURE=1013.25
		TEMPERATURE=20.00
		NORM_TEMPERATURE=20.00
		CORRECTION_FACTOR=1.0000
		CORRECTIONS=AIR_DENSITY_CORR;
		BEGIN_DATA
			-30.00		327.75E-03
			-15.00		337.56E-03
			15.00		345.91E-03
			30.00		347.90E-03
		END_DATA
	END_SCAN  12
	BEGIN_SCAN  13
		TASK_NAME=MODE_INTERVAL
		PROGRAM=BeamAdjust 1.2
		MEAS_DATE=07-Oct-2010 14:21:31
		LINAC=A4
		MODALITY=X
		INPLANE_AXIS_DIR=TARGET_GUN
		CROSSPLANE_AXIS_DIR=LEFT_RIGHT
		DEPTH_AXIS_DIR=UP_DOWN
		ENERGY=6.00
		SSD=950.00
		WEDGE=None
		FIELD_INPLANE=100.00
		FIELD_CROSSPLANE=100.00
		FIELD_TYPE=RECTANGULAR
		GANTRY=0.00
		GANTRY_UPRIGHT_POSITION=0
		GANTRY_ROTATION=CW
		COLL_ANGLE=90.00
		COLL_OFFSET_INPLANE=0.00
		COLL_OFFSET_CROSSPLANE=0.00
		SCAN_DEVICE=STARCHECK
		ELECTROMETER=2D_ARRAY_INTERFACE
		DETECTOR=STARCHECK
		SCAN_CURVETYPE=INPLANE_PROFILE
		SCAN_DEPTH=0.00
		SCAN_OFFAXIS_CROSSPLANE=100.00
		SCAN_ANGLE=0.00
		SCAN_DIAGONAL=NOT_DIAGONAL
		MEAS_PRESET=TIME_PRESET
		MEAS_TIME=10.000
		MEAS_UNIT=GY
		PRESSURE=1013.25
		TEMPERATURE=20.00
		NORM_TEMPERATURE=20.00
		CORRECTION_FACTOR=1.0000
		CORRECTIONS=AIR_DENSITY_CORR;
		BEGIN_DATA
			-60.00		7.8208E-03
			-30.00		10.318E-03
			30.00		10.421E-03
			60.00		7.4808E-03
		END_DATA
	END_SCAN  13
	BEGIN_SCAN  14
		TASK_NAME=MODE_INTERVAL
		PROGRAM=BeamAdjust 1.2
		MEAS_DATE=07-Oct-2010 14:21:31
		LINAC=A4
		MODALITY=X
		INPLANE_AXIS_DIR=TARGET_GUN
		CROSSPLANE_AXIS_DIR=LEFT_RIGHT
		DEPTH_AXIS_DIR=UP_DOWN
		ENERGY=6.00
		SSD=950.00
		WEDGE=None
		FIELD_INPLANE=100.00
		FIELD_CROSSPLANE=100.00
		FIELD_TYPE=RECTANGULAR
		GANTRY=0.00
		GANTRY_UPRIGHT_POSITION=0
		GANTRY_ROTATION=CW
		COLL_ANGLE=90.00
		COLL_OFFSET_INPLANE=0.00
		COLL_OFFSET_CROSSPLANE=0.00
		SCAN_DEVICE=STARCHECK
		ELECTROMETER=2D_ARRAY_INTERFACE
		DETECTOR=STARCHECK
		SCAN_CURVETYPE=INPLANE_PROFILE
		SCAN_DEPTH=0.00
		SCAN_OFFAXIS_CROSSPLANE=130.00
		SCAN_ANGLE=0.00
		SCAN_DIAGONAL=NOT_DIAGONAL
		MEAS_PRESET=TIME_PRESET
		MEAS_TIME=10.000
		MEAS_UNIT=GY
		PRESSURE=1013.25
		TEMPERATURE=20.00
		NORM_TEMPERATURE=20.00
		CORRECTION_FACTOR=1.0000
		CORRECTIONS=AIR_DENSITY_CORR;
		BEGIN_DATA
			-130.00		1.7519E-03
			-125.00		2.4321E-03
			-120.00		2.3797E-03
			-115.00		2.5240E-03
			-110.00		2.4601E-03
			-105.00		2.7580E-03
			-100.00		2.7341E-03
			-95.00		2.7344E-03
			-90.00		2.7976E-03
			-85.00		4.0215E-03
			-80.00		3.5338E-03
			-75.00		3.3277E-03
			-70.00		3.8394E-03
			-65.00		3.8624E-03
			-60.00		4.2986E-03
			-55.00		4.3384E-03
			-50.00		4.2649E-03
			-45.00		4.5792E-03
			-40.00		5.0531E-03
			-35.00		5.1634E-03
			-30.00		4.8806E-03
			-25.00		5.3053E-03
			-20.00		5.6206E-03
			-15.00		4.9058E-03
			-10.00		4.8406E-03
			-5.00		5.7363E-03
			0.00		5.9935E-03
			5.00		5.7239E-03
			10.00		5.7326E-03
			15.00		5.0923E-03
			20.00		5.3779E-03
			25.00		5.5844E-03
			30.00		5.0014E-03
			35.00		5.2716E-03
			40.00		5.7931E-03
			45.00		4.8630E-03
			50.00		5.0949E-03
			55.00		5.3958E-03
			60.00		4.7610E-03
			65.00		3.9183E-03
			70.00		4.2187E-03
			75.00		4.3063E-03
			80.00		3.9464E-03
			85.00		4.0767E-03
			90.00		3.4813E-03
			95.00		3.1693E-03
			100.00		3.6700E-03
			105.00		3.0202E-03
			110.00		2.5275E-03
			115.00		2.9465E-03
			120.00		3.3200E-03
			125.00		2.1341E-03
			130.00		2.2220E-03
		END_DATA
	END_SCAN  14
	BEGIN_SCAN  15
		TASK_NAME=MODE_INTERVAL
		PROGRAM=BeamAdjust 1.2
		MEAS_DATE=07-Oct-2010 14:21:31
		LINAC=A4
		MODALITY=X
		INPLANE_AXIS_DIR=TARGET_GUN
		CROSSPLANE_AXIS_DIR=LEFT_RIGHT
		DEPTH_AXIS_DIR=UP_DOWN
		ENERGY=6.00
		SSD=950.00
		WEDGE=None
		FIELD_INPLANE=100.00
		FIELD_CROSSPLANE=100.00
		FIELD_TYPE=RECTANGULAR
		GANTRY=0.00
		GANTRY_UPRIGHT_POSITION=0
		GANTRY_ROTATION=CW
		COLL_ANGLE=90.00
		COLL_OFFSET_INPLANE=0.00
		COLL_OFFSET_CROSSPLANE=0.00
		SCAN_DEVICE=STARCHECK
		ELECTROMETER=2D_ARRAY_INTERFACE
		DETECTOR=STARCHECK
		SCAN_CURVETYPE=INPLANE_PROFILE
		SCAN_DEPTH=0.00
		SCAN_OFFAXIS_CROSSPLANE=0.00
		SCAN_ANGLE=0.00
		SCAN_DIAGONAL=FIRST_DIAGONAL
		MEAS_PRESET=TIME_PRESET
		MEAS_TIME=10.000
		MEAS_UNIT=GY
		PRESSURE=1013.25
		TEMPERATURE=20.00
		NORM_TEMPERATURE=20.00
		CORRECTION_FACTOR=1.0000
		CORRECTIONS=AIR_DENSITY_CORR;
		BEGIN_DATA
			-172.40		2.6225E-03
			-169.40		2.5878E-03
			-166.40		4.0836E-03
			-163.40		3.5464E-03
			-160.40		3.7998E-03
			-157.40		3.9262E-03
			-154.40		3.9092E-03
			-151.40		3.7922E-03
			-148.40		4.6099E-03
			-145.40		5.2418E-03
			-142.40		5.2516E-03
			-139.40		5.8161E-03
			-136.40		6.8063E-03
			-133.40		6.5323E-03
			-130.40		6.8676E-03
			-127.40		7.6167E-03
			-124.40		8.0188E-03
			-121.40		8.5244E-03
			-118.40		9.7202E-03
			-115.40		10.431E-03
			-112.40		11.022E-03
			-109.40		12.501E-03
			-106.40		13.372E-03
			-103.40		13.948E-03
			-100.40		15.532E-03
			-97.40		17.676E-03
			-94.40		19.864E-03
			-91.40		21.750E-03
			-88.40		24.432E-03
			-85.40		26.754E-03
			-82.40		31.416E-03
			-79.40		36.881E-03
			-76.40		47.005E-03
			-73.40		74.221E-03
			-70.40		171.97E-03
			-67.40		377.23E-03
			-64.40		534.66E-03
			-61.40		596.69E-03
			-58.40		621.20E-03
			-55.40		635.28E-03
			-52.40		643.74E-03
			-49.40		648.47E-03
			-46.40		651.45E-03
			-43.40		654.53E-03
			-40.40		657.53E-03
			-37.40		662.10E-03
			-34.40		661.84E-03
			-31.40		663.86E-03
			-28.40		662.82E-03
			-25.40		665.63E-03
			-22.40		665.50E-03
			-19.40		666.12E-03
			-16.40		670.31E-03
			-13.40		672.74E-03
			0.00		669.14E-03
			13.40		674.56E-03
			16.40		669.78E-03
			19.40		669.28E-03
			22.40		667.88E-03
			25.40		666.98E-03
			28.40		666.18E-03
			31.40		663.75E-03
			34.40		660.77E-03
			37.40		663.39E-03
			40.40		660.82E-03
			43.40		657.68E-03
			46.40		655.97E-03
			49.40		650.06E-03
			52.40		646.35E-03
			55.40		635.60E-03
			58.40		622.78E-03
			61.40		598.33E-03
			64.40		534.21E-03
			67.40		373.59E-03
			70.40		171.50E-03
			73.40		74.374E-03
			76.40		47.367E-03
			79.40		36.977E-03
			82.40		31.184E-03
			85.40		26.623E-03
			88.40		24.245E-03
			91.40		21.132E-03
			94.40		19.338E-03
			97.40		17.614E-03
			100.40		15.770E-03
			103.40		14.738E-03
			106.40		13.224E-03
			109.40		12.170E-03
			112.40		10.600E-03
			115.40		10.100E-03
			118.40		8.9447E-03
			121.40		8.2716E-03
			124.40		7.8215E-03
			127.40		7.5578E-03
			130.40		7.0925E-03
			133.40		6.1218E-03
			136.40		5.4637E-03
			139.40		4.9275E-03
			142.40		4.5124E-03
			145.40		4.3478E-03
			148.40		4.4387E-03
			151.40		3.9884E-03
			154.40		3.7289E-03
			157.40		3.1317E-03
			160.40		2.4341E-03
			163.40		2.3356E-03
			166.40		2.7085E-03
			169.40		2.3347E-03
			172.40		2.3937E-03
		END_DATA
	END_SCAN  15
	BEGIN_SCAN  16
		TASK_NAME=MODE_INTERVAL
		PROGRAM=BeamAdjust 1.2
		MEAS_DATE=07-Oct-2010 14:21:31
		LINAC=A4
		MODALITY=X
		INPLANE_AXIS_DIR=GUN_TARGET
		CROSSPLANE_AXIS_DIR=LEFT_RIGHT
		DEPTH_AXIS_DIR=UP_DOWN
		ENERGY=6.00
		SSD=950.00
		WEDGE=None
		FIELD_INPLANE=100.00
		FIELD_CROSSPLANE=100.00
		FIELD_TYPE=RECTANGULAR
		GANTRY=0.00
		GANTRY_UPRIGHT_POSITION=0
		GANTRY_ROTATION=CW
		COLL_ANGLE=90.00
		COLL_OFFSET_INPLANE=0.00
		COLL_OFFSET_CROSSPLANE=0.00
		SCAN_DEVICE=STARCHECK
		ELECTROMETER=2D_ARRAY_INTERFACE
		DETECTOR=STARCHECK
		SCAN_CURVETYPE=INPLANE_PROFILE
		SCAN_DEPTH=0.00
		SCAN_OFFAXIS_CROSSPLANE=0.00
		SCAN_ANGLE=0.00
		SCAN_DIAGONAL=SECOND_DIAGONAL
		MEAS_PRESET=TIME_PRESET
		MEAS_TIME=10.000
		MEAS_UNIT=GY
		PRESSURE=1013.25
		TEMPERATURE=20.00
		NORM_TEMPERATURE=20.00
		CORRECTION_FACTOR=1.0000
		CORRECTIONS=AIR_DENSITY_CORR;
		BEGIN_DATA
			-172.40		2.6094E-03
			-169.40		3.1484E-03
			-166.40		2.7639E-03
			-163.40		2.6644E-03
			-160.40		3.1630E-03
			-157.40		3.4014E-03
			-154.40		3.6771E-03
			-151.40		4.0484E-03
			-148.40		4.6184E-03
			-145.40		4.0699E-03
			-142.40		4.8778E-03
			-139.40		5.5662E-03
			-136.40		5.5420E-03
			-133.40		6.2872E-03
			-130.40		6.9284E-03
			-127.40		7.8092E-03
			-124.40		8.2493E-03
			-121.40		8.6327E-03
			-118.40		9.3126E-03
			-115.40		9.9230E-03
			-112.40		10.440E-03
			-109.40		11.871E-03
			-106.40		13.381E-03
			-103.40		14.156E-03
			-100.40		15.733E-03
			-97.40		17.407E-03
			-94.40		18.748E-03
			-91.40		20.751E-03
			-88.40		23.072E-03
			-85.40		25.844E-03
			-82.40		29.659E-03
			-79.40		34.937E-03
			-76.40		43.863E-03
			-73.40		64.608E-03
			-70.40		135.72E-03
			-67.40		328.03E-03
			-64.40		515.34E-03
			-61.40		592.83E-03
			-58.40		624.02E-03
			-55.40		637.41E-03
			-52.40		648.57E-03
			-49.40		653.87E-03
			-46.40		657.97E-03
			-43.40		660.40E-03
			-40.40		662.64E-03
			-37.40		665.58E-03
			-34.40		665.35E-03
			-31.40		666.76E-03
			-28.40		668.98E-03
			-25.40		667.80E-03
			-22.40		666.36E-03
			-19.40		669.35E-03
			-16.40		671.00E-03
			-13.40		674.36E-03
			0.00		669.14E-03
			13.40		673.46E-03
			16.40		670.38E-03
			19.40		667.47E-03
			22.40		664.15E-03
			25.40		663.98E-03
			28.40		662.85E-03
			31.40		661.46E-03
			34.40		658.68E-03
			37.40		658.17E-03
			40.40		656.79E-03
			43.40		654.63E-03
			46.40		652.68E-03
			49.40		649.11E-03
			52.40		641.17E-03
			55.40		632.95E-03
			58.40		623.79E-03
			61.40		600.91E-03
			64.40		545.84E-03
			67.40		397.21E-03
			70.40		188.04E-03
			73.40		79.176E-03
			76.40		48.492E-03
			79.40		37.316E-03
			82.40		31.995E-03
			85.40		27.879E-03
			88.40		24.549E-03
			91.40		22.197E-03
			94.40		19.881E-03
			97.40		17.960E-03
			100.40		15.634E-03
			103.40		14.890E-03
			106.40		13.501E-03
			109.40		11.975E-03
			112.40		11.199E-03
			115.40		10.397E-03
			118.40		9.3688E-03
			121.40		8.5632E-03
			124.40		7.9629E-03
			127.40		7.3535E-03
			130.40		7.0994E-03
			133.40		6.6507E-03
			136.40		5.8302E-03
			139.40		6.1885E-03
			142.40		5.5444E-03
			145.40		5.7345E-03
			148.40		4.7839E-03
			151.40		3.9471E-03
			154.40		4.2631E-03
			157.40		4.0952E-03
			160.40		3.5331E-03
			163.40		3.7923E-03
			166.40		3.3992E-03
			169.40		2.6401E-03
			172.40		2.5758E-03
		END_DATA
	END_SCAN  16
END_SCAN_DATA
