BEGIN_SCAN_DATA
	FORMAT=CC-Export V1.9                  
	FILE_CREATION_DATE=07-Oct-2010 14:21:59
	LAST_MODIFIED=07-Oct-2010 14:21:59
	BEGIN_SCAN  1
		TASK_NAME=MODE_INTERVAL
		PROGRAM=BeamAdjust 1.2
		MEAS_DATE=07-Oct-2010 14:21:59
		LINAC=A4
		MODALITY=X
		INPLANE_AXIS_DIR=TARGET_GUN
		CROSSPLANE_AXIS_DIR=LEFT_RIGHT
		DEPTH_AXIS_DIR=UP_DOWN
		ENERGY=6.00
		SSD=950.00
		WEDGE=None
		FIELD_INPLANE=100.00
		FIELD_CROSSPLANE=100.00
		FIELD_TYPE=RECTANGULAR
		GANTRY=0.00
		GANTRY_UPRIGHT_POSITION=0
		GANTRY_ROTATION=CW
		COLL_ANGLE=90.00
		COLL_OFFSET_INPLANE=0.00
		COLL_OFFSET_CROSSPLANE=0.00
		SCAN_DEVICE=STARCHECK
		ELECTROMETER=2D_ARRAY_INTERFACE
		DETECTOR=STARCHECK
		SCAN_CURVETYPE=CROSSPLANE_PROFILE
		SCAN_DEPTH=0.00
		SCAN_OFFAXIS_INPLANE=-130.00
		SCAN_ANGLE=0.00
		SCAN_DIAGONAL=NOT_DIAGONAL
		MEAS_PRESET=TIME_PRESET
		MEAS_TIME=10.000
		MEAS_UNIT=GY
		PRESSURE=1013.25
		TEMPERATURE=20.00
		NORM_TEMPERATURE=20.00
		CORRECTION_FACTOR=1.0000
		CORRECTIONS=AIR_DENSITY_CORR;
		BEGIN_DATA
			-130.00		2.3960E-03
			-80.00		3.9266E-03
			-40.00		6.9371E-03
			40.00		6.6294E-03
			80.00		3.7041E-03
			130.00		1.6861E-03
		END_DATA
	END_SCAN  1
	BEGIN_SCAN  2
		TASK_NAME=MODE_INTERVAL
		PROGRAM=BeamAdjust 1.2
		MEAS_DATE=07-Oct-2010 14:21:59
		LINAC=A4
		MODALITY=X
		INPLANE_AXIS_DIR=TARGET_GUN
		CROSSPLANE_AXIS_DIR=LEFT_RIGHT
		DEPTH_AXIS_DIR=UP_DOWN
		ENERGY=6.00
		SSD=950.00
		WEDGE=None
		FIELD_INPLANE=100.00
		FIELD_CROSSPLANE=100.00
		FIELD_TYPE=RECTANGULAR
		GANTRY=0.00
		GANTRY_UPRIGHT_POSITION=0
		GANTRY_ROTATION=CW
		COLL_ANGLE=90.00
		COLL_OFFSET_INPLANE=0.00
		COLL_OFFSET_CROSSPLANE=0.00
		SCAN_DEVICE=STARCHECK
		ELECTROMETER=2D_ARRAY_INTERFACE
		DETECTOR=STARCHECK
		SCAN_CURVETYPE=CROSSPLANE_PROFILE
		SCAN_DEPTH=0.00
		SCAN_OFFAXIS_INPLANE=-100.00
		SCAN_ANGLE=0.00
		SCAN_DIAGONAL=NOT_DIAGONAL
		MEAS_PRESET=TIME_PRESET
		MEAS_TIME=10.000
		MEAS_UNIT=GY
		PRESSURE=1013.25
		TEMPERATURE=20.00
		NORM_TEMPERATURE=20.00
		CORRECTION_FACTOR=1.0000
		CORRECTIONS=AIR_DENSITY_CORR;
		BEGIN_DATA
			-60.00		9.7622E-03
			-30.00		13.743E-03
			30.00		14.486E-03
			60.00		10.240E-03
		END_DATA
	END_SCAN  2
	BEGIN_SCAN  3
		TASK_NAME=MODE_INTERVAL
		PROGRAM=BeamAdjust 1.2
		MEAS_DATE=07-Oct-2010 14:21:59
		LINAC=A4
		MODALITY=X
		INPLANE_AXIS_DIR=TARGET_GUN
		CROSSPLANE_AXIS_DIR=LEFT_RIGHT
		DEPTH_AXIS_DIR=UP_DOWN
		ENERGY=6.00
		SSD=950.00
		WEDGE=None
		FIELD_INPLANE=100.00
		FIELD_CROSSPLANE=100.00
		FIELD_TYPE=RECTANGULAR
		GANTRY=0.00
		GANTRY_UPRIGHT_POSITION=0
		GANTRY_ROTATION=CW
		COLL_ANGLE=90.00
		COLL_OFFSET_INPLANE=0.00
		COLL_OFFSET_CROSSPLANE=0.00
		SCAN_DEVICE=STARCHECK
		ELECTROMETER=2D_ARRAY_INTERFACE
		DETECTOR=STARCHECK
		SCAN_CURVETYPE=CROSSPLANE_PROFILE
		SCAN_DEPTH=0.00
		SCAN_OFFAXIS_INPLANE=-50.00
		SCAN_ANGLE=0.00
		SCAN_DIAGONAL=NOT_DIAGONAL
		MEAS_PRESET=TIME_PRESET
		MEAS_TIME=10.000
		MEAS_UNIT=GY
		PRESSURE=1013.25
		TEMPERATURE=20.00
		NORM_TEMPERATURE=20.00
		CORRECTION_FACTOR=1.0000
		CORRECTIONS=AIR_DENSITY_CORR;
		BEGIN_DATA
			-30.00		267.80E-03
			-15.00		232.36E-03
			15.00		255.74E-03
			30.00		264.80E-03
		END_DATA
	END_SCAN  3
	BEGIN_SCAN  4
		TASK_NAME=MODE_INTERVAL
		PROGRAM=BeamAdjust 1.2
		MEAS_DATE=07-Oct-2010 14:21:59
		LINAC=A4
		MODALITY=X
		INPLANE_AXIS_DIR=TARGET_GUN
		CROSSPLANE_AXIS_DIR=LEFT_RIGHT
		DEPTH_AXIS_DIR=UP_DOWN
		ENERGY=6.00
		SSD=950.00
		WEDGE=None
		FIELD_INPLANE=100.00
		FIELD_CROSSPLANE=100.00
		FIELD_TYPE=RECTANGULAR
		GANTRY=0.00
		GANTRY_UPRIGHT_POSITION=0
		GANTRY_ROTATION=CW
		COLL_ANGLE=90.00
		COLL_OFFSET_INPLANE=0.00
		COLL_OFFSET_CROSSPLANE=0.00
		SCAN_DEVICE=STARCHECK
		ELECTROMETER=2D_ARRAY_INTERFACE
		DETECTOR=STARCHECK
		SCAN_CURVETYPE=CROSSPLANE_PROFILE
		SCAN_DEPTH=0.00
		SCAN_OFFAXIS_INPLANE=0.00
		SCAN_ANGLE=0.00
		SCAN_DIAGONAL=NOT_DIAGONAL
		MEAS_PRESET=TIME_PRESET
		MEAS_TIME=10.000
		MEAS_UNIT=GY
		PRESSURE=1013.25
		TEMPERATURE=20.00
		NORM_TEMPERATURE=20.00
		CORRECTION_FACTOR=1.0000
		CORRECTIONS=AIR_DENSITY_CORR;
		BEGIN_DATA
			-126.00		6.6812E-03
			-123.00		7.5951E-03
			-120.00		7.5999E-03
			-117.00		8.5630E-03
			-114.00		8.7494E-03
			-111.00		9.4998E-03
			-108.00		10.197E-03
			-105.00		10.854E-03
			-102.00		12.011E-03
			-99.00		12.671E-03
			-96.00		13.852E-03
			-93.00		15.323E-03
			-90.00		16.891E-03
			-87.00		17.976E-03
			-84.00		20.320E-03
			-81.00		21.894E-03
			-78.00		23.841E-03
			-75.00		26.679E-03
			-72.00		29.899E-03
			-69.00		34.202E-03
			-66.00		38.984E-03
			-63.00		45.085E-03
			-60.00		54.800E-03
			-57.00		72.335E-03
			-54.00		113.72E-03
			-51.00		289.67E-03
			-48.00		555.60E-03
			-45.00		617.25E-03
			-42.00		637.21E-03
			-39.00		649.86E-03
			-36.00		655.42E-03
			-33.00		655.83E-03
			-30.00		657.96E-03
			-27.00		660.74E-03
			-24.00		663.42E-03
			-21.00		662.85E-03
			-18.00		668.99E-03
			-15.00		669.44E-03
			-12.00		668.46E-03
			-9.00		670.86E-03
			-6.00		670.40E-03
			0.00		668.73E-03
			6.00		672.21E-03
			9.00		671.40E-03
			12.00		668.98E-03
			15.00		668.42E-03
			18.00		667.52E-03
			21.00		665.29E-03
			24.00		662.12E-03
			27.00		666.50E-03
			30.00		664.52E-03
			33.00		662.09E-03
			36.00		658.55E-03
			39.00		652.25E-03
			42.00		641.00E-03
			45.00		616.47E-03
			48.00		527.49E-03
			51.00		234.46E-03
			54.00		102.35E-03
			57.00		68.415E-03
			60.00		53.058E-03
			63.00		44.437E-03
			66.00		37.824E-03
			69.00		32.779E-03
			72.00		29.730E-03
			75.00		26.224E-03
			78.00		23.526E-03
			81.00		21.844E-03
			84.00		19.866E-03
			87.00		17.364E-03
			90.00		16.831E-03
			93.00		15.222E-03
			96.00		13.284E-03
			99.00		12.521E-03
			102.00		11.609E-03
			105.00		10.844E-03
			108.00		10.424E-03
			111.00		9.2774E-03
			114.00		8.6716E-03
			117.00		7.7877E-03
			120.00		7.4826E-03
			123.00		7.0449E-03
			126.00		7.3949E-03
		END_DATA
	END_SCAN  4
	BEGIN_SCAN  5
		TASK_NAME=MODE_INTERVAL
		PROGRAM=BeamAdjust 1.2
		MEAS_DATE=07-Oct-2010 14:21:59
		LINAC=A4
		MODALITY=X
		INPLANE_AXIS_DIR=TARGET_GUN
		CROSSPLANE_AXIS_DIR=LEFT_RIGHT
		DEPTH_AXIS_DIR=UP_DOWN
		ENERGY=6.00
		SSD=950.00
		WEDGE=None
		FIELD_INPLANE=100.00
		FIELD_CROSSPLANE=100.00
		FIELD_TYPE=RECTANGULAR
		GANTRY=0.00
		GANTRY_UPRIGHT_POSITION=0
		GANTRY_ROTATION=CW
		COLL_ANGLE=90.00
		COLL_OFFSET_INPLANE=0.00
		COLL_OFFSET_CROSSPLANE=0.00
		SCAN_DEVICE=STARCHECK
		ELECTROMETER=2D_ARRAY_INTERFACE
		DETECTOR=STARCHECK
		SCAN_CURVETYPE=CROSSPLANE_PROFILE
		SCAN_DEPTH=0.00
		SCAN_OFFAXIS_INPLANE=50.00
		SCAN_ANGLE=0.00
		SCAN_DIAGONAL=NOT_DIAGONAL
		MEAS_PRESET=TIME_PRESET
		MEAS_TIME=10.000
		MEAS_UNIT=GY
		PRESSURE=1013.25
		TEMPERATURE=20.00
		NORM_TEMPERATURE=20.00
		CORRECTION_FACTOR=1.0000
		CORRECTIONS=AIR_DENSITY_CORR;
		BEGIN_DATA
			-30.00		395.02E-03
			-15.00		410.12E-03
			15.00		379.57E-03
			30.00		384.86E-03
		END_DATA
	END_SCAN  5
	BEGIN_SCAN  6
		TASK_NAME=MODE_INTERVAL
		PROGRAM=BeamAdjust 1.2
		MEAS_DATE=07-Oct-2010 14:21:59
		LINAC=A4
		MODALITY=X
		INPLANE_AXIS_DIR=TARGET_GUN
		CROSSPLANE_AXIS_DIR=LEFT_RIGHT
		DEPTH_AXIS_DIR=UP_DOWN
		ENERGY=6.00
		SSD=950.00
		WEDGE=None
		FIELD_INPLANE=100.00
		FIELD_CROSSPLANE=100.00
		FIELD_TYPE=RECTANGULAR
		GANTRY=0.00
		GANTRY_UPRIGHT_POSITION=0
		GANTRY_ROTATION=CW
		COLL_ANGLE=90.00
		COLL_OFFSET_INPLANE=0.00
		COLL_OFFSET_CROSSPLANE=0.00
		SCAN_DEVICE=STARCHECK
		ELECTROMETER=2D_ARRAY_INTERFACE
		DETECTOR=STARCHECK
		SCAN_CURVETYPE=CROSSPLANE_PROFILE
		SCAN_DEPTH=0.00
		SCAN_OFFAXIS_INPLANE=100.00
		SCAN_ANGLE=0.00
		SCAN_DIAGONAL=NOT_DIAGONAL
		MEAS_PRESET=TIME_PRESET
		MEAS_TIME=10.000
		MEAS_UNIT=GY
		PRESSURE=1013.25
		TEMPERATURE=20.00
		NORM_TEMPERATURE=20.00
		CORRECTION_FACTOR=1.0000
		CORRECTIONS=AIR_DENSITY_CORR;
		BEGIN_DATA
			-60.00		10.348E-03
			-30.00		15.404E-03
			30.00		15.549E-03
			60.00		9.3505E-03
		END_DATA
	END_SCAN  6
	BEGIN_SCAN  7
		TASK_NAME=MODE_INTERVAL
		PROGRAM=BeamAdjust 1.2
		MEAS_DATE=07-Oct-2010 14:21:59
		LINAC=A4
		MODALITY=X
		INPLANE_AXIS_DIR=TARGET_GUN
		CROSSPLANE_AXIS_DIR=LEFT_RIGHT
		DEPTH_AXIS_DIR=UP_DOWN
		ENERGY=6.00
		SSD=950.00
		WEDGE=None
		FIELD_INPLANE=100.00
		FIELD_CROSSPLANE=100.00
		FIELD_TYPE=RECTANGULAR
		GANTRY=0.00
		GANTRY_UPRIGHT_POSITION=0
		GANTRY_ROTATION=CW
		COLL_ANGLE=90.00
		COLL_OFFSET_INPLANE=0.00
		COLL_OFFSET_CROSSPLANE=0.00
		SCAN_DEVICE=STARCHECK
		ELECTROMETER=2D_ARRAY_INTERFACE
		DETECTOR=STARCHECK
		SCAN_CURVETYPE=CROSSPLANE_PROFILE
		SCAN_DEPTH=0.00
		SCAN_OFFAXIS_INPLANE=130.00
		SCAN_ANGLE=0.00
		SCAN_DIAGONAL=NOT_DIAGONAL
		MEAS_PRESET=TIME_PRESET
		MEAS_TIME=10.000
		MEAS_UNIT=GY
		PRESSURE=1013.25
		TEMPERATURE=20.00
		NORM_TEMPERATURE=20.00
		CORRECTION_FACTOR=1.0000
		CORRECTIONS=AIR_DENSITY_CORR;
		BEGIN_DATA
			-130.00		1.4743E-03
			-80.00		3.9233E-03
			-40.00		7.6877E-03
			40.00		7.0900E-03
			80.00		4.0581E-03
			130.00		2.3196E-03
		END_DATA
	END_SCAN  7
	BEGIN_SCAN  8
		TASK_NAME=MODE_INTERVAL
		PROGRAM=BeamAdjust 1.2
		MEAS_DATE=07-Oct-2010 14:21:59
		LINAC=A4
		MODALITY=X
		INPLANE_AXIS_DIR=TARGET_GUN
		CROSSPLANE_AXIS_DIR=LEFT_RIGHT
		DEPTH_AXIS_DIR=UP_DOWN
		ENERGY=6.00
		SSD=950.00
		WEDGE=None
		FIELD_INPLANE=100.00
		FIELD_CROSSPLANE=100.00
		FIELD_TYPE=RECTANGULAR
		GANTRY=0.00
		GANTRY_UPRIGHT_POSITION=0
		GANTRY_ROTATION=CW
		COLL_ANGLE=90.00
		COLL_OFFSET_INPLANE=0.00
		COLL_OFFSET_CROSSPLANE=0.00
		SCAN_DEVICE=STARCHECK
		ELECTROMETER=2D_ARRAY_INTERFACE
		DETECTOR=STARCHECK
		SCAN_CURVETYPE=INPLANE_PROFILE
		SCAN_DEPTH=0.00
		SCAN_OFFAXIS_CROSSPLANE=-130.00
		SCAN_ANGLE=0.00
		SCAN_DIAGONAL=NOT_DIAGONAL
		MEAS_PRESET=TIME_PRESET
		MEAS_TIME=10.000
		MEAS_UNIT=GY
		PRESSURE=1013.25
		TEMPERATURE=20.00
		NORM_TEMPERATURE=20.00
		CORRECTION_FACTOR=1.0000
		CORRECTIONS=AIR_DENSITY_CORR;
		BEGIN_DATA
			-130.00		2.3960E-03
			-125.00		2.5913E-03
			-120.00		3.0800E-03
			-115.00		2.9531E-03
			-110.00		3.3841E-03
			-105.00		3.4803E-03
			-100.00		3.5900E-03
			-95.00		5.0156E-03
			-90.00		4.6733E-03
			-85.00		3.8296E-03
			-80.00		4.2104E-03
			-75.00		4.7051E-03
			-70.00		4.5976E-03
			-65.00		5.1751E-03
			-60.00		4.9466E-03
			-55.00		5.5046E-03
			-50.00		4.3501E-03
			-45.00		4.6908E-03
			-40.00		4.8488E-03
			-35.00		5.4292E-03
			-30.00		4.9990E-03
			-25.00		5.5583E-03
			-20.00		5.2366E-03
			-15.00		4.6925E-03
			-10.00		5.3496E-03
			-5.00		5.8956E-03
			0.00		5.7082E-03
			5.00		6.8487E-03
			10.00		5.8344E-03
			15.00		5.0715E-03
			20.00		6.2759E-03
			25.00		4.9496E-03
			30.00		5.0630E-03
			35.00		5.7311E-03
			40.00		4.8564E-03
			45.00		5.0394E-03
			50.00		4.9402E-03
			55.00		4.3457E-03
			60.00		4.6206E-03
			65.00		4.1896E-03
			70.00		3.8022E-03
			75.00		3.7429E-03
			80.00		3.6429E-03
			85.00		3.4718E-03
			90.00		3.3317E-03
			95.00		3.3655E-03
			100.00		2.7008E-03
			105.00		2.6325E-03
			110.00		2.5261E-03
			115.00		2.6619E-03
			120.00		2.5498E-03
			125.00		2.4757E-03
			130.00		1.4743E-03
		END_DATA
	END_SCAN  8
	BEGIN_SCAN  9
		TASK_NAME=MODE_INTERVAL
		PROGRAM=BeamAdjust 1.2
		MEAS_DATE=07-Oct-2010 14:21:59
		LINAC=A4
		MODALITY=X
		INPLANE_AXIS_DIR=TARGET_GUN
		CROSSPLANE_AXIS_DIR=LEFT_RIGHT
		DEPTH_AXIS_DIR=UP_DOWN
		ENERGY=6.00
		SSD=950.00
		WEDGE=None
		FIELD_INPLANE=100.00
		FIELD_CROSSPLANE=100.00
		FIELD_TYPE=RECTANGULAR
		GANTRY=0.00
		GANTRY_UPRIGHT_POSITION=0
		GANTRY_ROTATION=CW
		COLL_ANGLE=90.00
		COLL_OFFSET_INPLANE=0.00
		COLL_OFFSET_CROSSPLANE=0.00
		SCAN_DEVICE=STARCHECK
		ELECTROMETER=2D_ARRAY_INTERFACE
		DETECTOR=STARCHECK
		SCAN_CURVETYPE=INPLANE_PROFILE
		SCAN_DEPTH=0.00
		SCAN_OFFAXIS_CROSSPLANE=-100.00
		SCAN_ANGLE=0.00
		SCAN_DIAGONAL=NOT_DIAGONAL
		MEAS_PRESET=TIME_PRESET
		MEAS_TIME=10.000
		MEAS_UNIT=GY
		PRESSURE=1013.25
		TEMPERATURE=20.00
		NORM_TEMPERATURE=20.00
		CORRECTION_FACTOR=1.0000
		CORRECTIONS=AIR_DENSITY_CORR;
		BEGIN_DATA
			-60.00		8.7637E-03
			-30.00		9.8193E-03
			30.00		9.9862E-03
			60.00		8.3560E-03
		END_DATA
	END_SCAN  9
	BEGIN_SCAN  10
		TASK_NAME=MODE_INTERVAL
		PROGRAM=BeamAdjust 1.2
		MEAS_DATE=07-Oct-2010 14:21:59
		LINAC=A4
		MODALITY=X
		INPLANE_AXIS_DIR=TARGET_GUN
		CROSSPLANE_AXIS_DIR=LEFT_RIGHT
		DEPTH_AXIS_DIR=UP_DOWN
		ENERGY=6.00
		SSD=950.00
		WEDGE=None
		FIELD_INPLANE=100.00
		FIELD_CROSSPLANE=100.00
		FIELD_TYPE=RECTANGULAR
		GANTRY=0.00
		GANTRY_UPRIGHT_POSITION=0
		GANTRY_ROTATION=CW
		COLL_ANGLE=90.00
		COLL_OFFSET_INPLANE=0.00
		COLL_OFFSET_CROSSPLANE=0.00
		SCAN_DEVICE=STARCHECK
		ELECTROMETER=2D_ARRAY_INTERFACE
		DETECTOR=STARCHECK
		SCAN_CURVETYPE=INPLANE_PROFILE
		SCAN_DEPTH=0.00
		SCAN_OFFAXIS_CROSSPLANE=-50.00
		SCAN_ANGLE=0.00
		SCAN_DIAGONAL=NOT_DIAGONAL
		MEAS_PRESET=TIME_PRESET
		MEAS_TIME=10.000
		MEAS_UNIT=GY
		PRESSURE=1013.25
		TEMPERATURE=20.00
		NORM_TEMPERATURE=20.00
		CORRECTION_FACTOR=1.0000
		CORRECTIONS=AIR_DENSITY_CORR;
		BEGIN_DATA
			-30.00		395.93E-03
			-15.00		392.60E-03
			15.00		383.11E-03
			30.00		372.55E-03
		END_DATA
	END_SCAN  10
	BEGIN_SCAN  11
		TASK_NAME=MODE_INTERVAL
		PROGRAM=BeamAdjust 1.2
		MEAS_DATE=07-Oct-2010 14:21:59
		LINAC=A4
		MODALITY=X
		INPLANE_AXIS_DIR=TARGET_GUN
		CROSSPLANE_AXIS_DIR=LEFT_RIGHT
		DEPTH_AXIS_DIR=UP_DOWN
		ENERGY=6.00
		SSD=950.00
		WEDGE=None
		FIELD_INPLANE=100.00
		FIELD_CROSSPLANE=100.00
		FIELD_TYPE=RECTANGULAR
		GANTRY=0.00
		GANTRY_UPRIGHT_POSITION=0
		GANTRY_ROTATION=CW
		COLL_ANGLE=90.00
		COLL_OFFSET_INPLANE=0.00
		COLL_OFFSET_CROSSPLANE=0.00
		SCAN_DEVICE=STARCHECK
		ELECTROMETER=2D_ARRAY_INTERFACE
		DETECTOR=STARCHECK
		SCAN_CURVETYPE=INPLANE_PROFILE
		SCAN_DEPTH=0.00
		SCAN_OFFAXIS_CROSSPLANE=0.00
		SCAN_ANGLE=0.00
		SCAN_DIAGONAL=NOT_DIAGONAL
		MEAS_PRESET=TIME_PRESET
		MEAS_TIME=10.000
		MEAS_UNIT=GY
		PRESSURE=1013.25
		TEMPERATURE=20.00
		NORM_TEMPERATURE=20.00
		CORRECTION_FACTOR=1.0000
		CORRECTIONS=AIR_DENSITY_CORR;
		BEGIN_DATA
			-126.00		8.7164E-03
			-123.00		8.9330E-03
			-120.00		9.7368E-03
			-117.00		10.988E-03
			-114.00		11.653E-03
			-111.00		12.313E-03
			-108.00		12.897E-03
			-105.00		14.489E-03
			-102.00		15.631E-03
			-99.00		15.798E-03
			-96.00		17.713E-03
			-93.00		19.668E-03
			-90.00		21.108E-03
			-87.00		22.982E-03
			-84.00		24.735E-03
			-81.00		26.835E-03
			-78.00		29.531E-03
			-75.00		31.776E-03
			-72.00		34.769E-03
			-69.00		38.061E-03
			-66.00		43.302E-03
			-63.00		48.551E-03
			-60.00		56.591E-03
			-57.00		70.709E-03
			-54.00		99.580E-03
			-51.00		189.95E-03
			-48.00		444.67E-03
			-45.00		601.50E-03
			-42.00		635.67E-03
			-39.00		648.91E-03
			-36.00		656.12E-03
			-33.00		660.37E-03
			-30.00		664.83E-03
			-27.00		666.57E-03
			-24.00		665.73E-03
			-21.00		664.78E-03
			-18.00		671.10E-03
			-15.00		669.49E-03
			-12.00		672.03E-03
			-9.00		672.75E-03
			-6.00		670.34E-03
			0.00		668.73E-03
			6.00		672.49E-03
			9.00		672.46E-03
			12.00		672.61E-03
			15.00		670.87E-03
			18.00		665.88E-03
			21.00		665.23E-03
			24.00		661.95E-03
			27.00		663.72E-03
			30.00		660.00E-03
			33.00		658.05E-03
			36.00		656.72E-03
			39.00		646.78E-03
			42.00		638.91E-03
			45.00		620.73E-03
			48.00		547.52E-03
			51.00		298.75E-03
			54.00		132.12E-03
			57.00		81.225E-03
			60.00		61.828E-03
			63.00		51.795E-03
			66.00		45.844E-03
			69.00		40.103E-03
			72.00		36.224E-03
			75.00		32.580E-03
			78.00		29.098E-03
			81.00		26.971E-03
			84.00		24.722E-03
			87.00		23.217E-03
			90.00		21.224E-03
			93.00		19.357E-03
			96.00		18.371E-03
			99.00		16.372E-03
			102.00		14.969E-03
			105.00		14.120E-03
			108.00		13.092E-03
			111.00		12.232E-03
			114.00		11.395E-03
			117.00		10.515E-03
			120.00		9.8073E-03
			123.00		9.3065E-03
			126.00		8.2899E-03
		END_DATA
	END_SCAN  11
	BEGIN_SCAN  12
		TASK_NAME=MODE_INTERVAL
		PROGRAM=BeamAdjust 1.2
		MEAS_DATE=07-Oct-2010 14:21:59
		LINAC=A4
		MODALITY=X
		INPLANE_AXIS_DIR=TARGET_GUN
		CROSSPLANE_AXIS_DIR=LEFT_RIGHT
		DEPTH_AXIS_DIR=UP_DOWN
		ENERGY=6.00
		SSD=950.00
		WEDGE=None
		FIELD_INPLANE=100.00
		FIELD_CROSSPLANE=100.00
		FIELD_TYPE=RECTANGULAR
		GANTRY=0.00
		GANTRY_UPRIGHT_POSITION=0
		GANTRY_ROTATION=CW
		COLL_ANGLE=90.00
		COLL_OFFSET_INPLANE=0.00
		COLL_OFFSET_CROSSPLANE=0.00
		SCAN_DEVICE=STARCHECK
		ELECTROMETER=2D_ARRAY_INTERFACE
		DETECTOR=STARCHECK
		SCAN_CURVETYPE=INPLANE_PROFILE
		SCAN_DEPTH=0.00
		SCAN_OFFAXIS_CROSSPLANE=50.00
		SCAN_ANGLE=0.00
		SCAN_DIAGONAL=NOT_DIAGONAL
		MEAS_PRESET=TIME_PRESET
		MEAS_TIME=10.000
		MEAS_UNIT=GY
		PRESSURE=1013.25
		TEMPERATURE=20.00
		NORM_TEMPERATURE=20.00
		CORRECTION_FACTOR=1.0000
		CORRECTIONS=AIR_DENSITY_CORR;
		BEGIN_DATA
			-30.00		328.08E-03
			-15.00		337.48E-03
			15.00		345.77E-03
			30.00		347.35E-03
		END_DATA
	END_SCAN  12
	BEGIN_SCAN  13
		TASK_NAME=MODE_INTERVAL
		PROGRAM=BeamAdjust 1.2
		MEAS_DATE=07-Oct-2010 14:21:59
		LINAC=A4
		MODALITY=X
		INPLANE_AXIS_DIR=TARGET_GUN
		CROSSPLANE_AXIS_DIR=LEFT_RIGHT
		DEPTH_AXIS_DIR=UP_DOWN
		ENERGY=6.00
		SSD=950.00
		WEDGE=None
		FIELD_INPLANE=100.00
		FIELD_CROSSPLANE=100.00
		FIELD_TYPE=RECTANGULAR
		GANTRY=0.00
		GANTRY_UPRIGHT_POSITION=0
		GANTRY_ROTATION=CW
		COLL_ANGLE=90.00
		COLL_OFFSET_INPLANE=0.00
		COLL_OFFSET_CROSSPLANE=0.00
		SCAN_DEVICE=STARCHECK
		ELECTROMETER=2D_ARRAY_INTERFACE
		DETECTOR=STARCHECK
		SCAN_CURVETYPE=INPLANE_PROFILE
		SCAN_DEPTH=0.00
		SCAN_OFFAXIS_CROSSPLANE=100.00
		SCAN_ANGLE=0.00
		SCAN_DIAGONAL=NOT_DIAGONAL
		MEAS_PRESET=TIME_PRESET
		MEAS_TIME=10.000
		MEAS_UNIT=GY
		PRESSURE=1013.25
		TEMPERATURE=20.00
		NORM_TEMPERATURE=20.00
		CORRECTION_FACTOR=1.0000
		CORRECTIONS=AIR_DENSITY_CORR;
		BEGIN_DATA
			-60.00		7.8728E-03
			-30.00		9.9442E-03
			30.00		10.544E-03
			60.00		7.4214E-03
		END_DATA
	END_SCAN  13
	BEGIN_SCAN  14
		TASK_NAME=MODE_INTERVAL
		PROGRAM=BeamAdjust 1.2
		MEAS_DATE=07-Oct-2010 14:21:59
		LINAC=A4
		MODALITY=X
		INPLANE_AXIS_DIR=TARGET_GUN
		CROSSPLANE_AXIS_DIR=LEFT_RIGHT
		DEPTH_AXIS_DIR=UP_DOWN
		ENERGY=6.00
		SSD=950.00
		WEDGE=None
		FIELD_INPLANE=100.00
		FIELD_CROSSPLANE=100.00
		FIELD_TYPE=RECTANGULAR
		GANTRY=0.00
		GANTRY_UPRIGHT_POSITION=0
		GANTRY_ROTATION=CW
		COLL_ANGLE=90.00
		COLL_OFFSET_INPLANE=0.00
		COLL_OFFSET_CROSSPLANE=0.00
		SCAN_DEVICE=STARCHECK
		ELECTROMETER=2D_ARRAY_INTERFACE
		DETECTOR=STARCHECK
		SCAN_CURVETYPE=INPLANE_PROFILE
		SCAN_DEPTH=0.00
		SCAN_OFFAXIS_CROSSPLANE=130.00
		SCAN_ANGLE=0.00
		SCAN_DIAGONAL=NOT_DIAGONAL
		MEAS_PRESET=TIME_PRESET
		MEAS_TIME=10.000
		MEAS_UNIT=GY
		PRESSURE=1013.25
		TEMPERATURE=20.00
		NORM_TEMPERATURE=20.00
		CORRECTION_FACTOR=1.0000
		CORRECTIONS=AIR_DENSITY_CORR;
		BEGIN_DATA
			-130.00		1.6861E-03
			-125.00		2.4469E-03
			-120.00		2.0532E-03
			-115.00		2.5107E-03
			-110.00		2.6851E-03
			-105.00		2.5719E-03
			-100.00		2.7029E-03
			-95.00		2.9646E-03
			-90.00		2.8331E-03
			-85.00		3.6780E-03
			-80.00		3.3215E-03
			-75.00		3.6425E-03
			-70.00		3.8998E-03
			-65.00		3.8477E-03
			-60.00		4.6947E-03
			-55.00		3.8837E-03
			-50.00		4.4790E-03
			-45.00		4.7887E-03
			-40.00		4.4813E-03
			-35.00		5.3705E-03
			-30.00		5.1939E-03
			-25.00		4.7442E-03
			-20.00		5.6797E-03
			-15.00		5.3782E-03
			-10.00		4.4259E-03
			-5.00		5.7892E-03
			0.00		6.0537E-03
			5.00		5.5802E-03
			10.00		5.5984E-03
			15.00		5.2324E-03
			20.00		5.4430E-03
			25.00		5.2686E-03
			30.00		4.7564E-03
			35.00		5.4433E-03
			40.00		5.7299E-03
			45.00		4.9398E-03
			50.00		4.6909E-03
			55.00		5.9291E-03
			60.00		4.7005E-03
			65.00		4.1256E-03
			70.00		4.1377E-03
			75.00		4.0549E-03
			80.00		4.2436E-03
			85.00		3.7317E-03
			90.00		3.1822E-03
			95.00		3.7809E-03
			100.00		3.5081E-03
			105.00		2.5669E-03
			110.00		3.1483E-03
			115.00		2.5576E-03
			120.00		2.5118E-03
			125.00		3.0942E-03
			130.00		2.3196E-03
		END_DATA
	END_SCAN  14
	BEGIN_SCAN  15
		TASK_NAME=MODE_INTERVAL
		PROGRAM=BeamAdjust 1.2
		MEAS_DATE=07-Oct-2010 14:21:59
		LINAC=A4
		MODALITY=X
		INPLANE_AXIS_DIR=TARGET_GUN
		CROSSPLANE_AXIS_DIR=LEFT_RIGHT
		DEPTH_AXIS_DIR=UP_DOWN
		ENERGY=6.00
		SSD=950.00
		WEDGE=None
		FIELD_INPLANE=100.00
		FIELD_CROSSPLANE=100.00
		FIELD_TYPE=RECTANGULAR
		GANTRY=0.00
		GANTRY_UPRIGHT_POSITION=0
		GANTRY_ROTATION=CW
		COLL_ANGLE=90.00
		COLL_OFFSET_INPLANE=0.00
		COLL_OFFSET_CROSSPLANE=0.00
		SCAN_DEVICE=STARCHECK
		ELECTROMETER=2D_ARRAY_INTERFACE
		DETECTOR=STARCHECK
		SCAN_CURVETYPE=INPLANE_PROFILE
		SCAN_DEPTH=0.00
		SCAN_OFFAXIS_CROSSPLANE=0.00
		SCAN_ANGLE=0.00
		SCAN_DIAGONAL=FIRST_DIAGONAL
		MEAS_PRESET=TIME_PRESET
		MEAS_TIME=10.000
		MEAS_UNIT=GY
		PRESSURE=1013.25
		TEMPERATURE=20.00
		NORM_TEMPERATURE=20.00
		CORRECTION_FACTOR=1.0000
		CORRECTIONS=AIR_DENSITY_CORR;
		BEGIN_DATA
			-172.40		2.4810E-03
			-169.40		2.7031E-03
			-166.40		3.8096E-03
			-163.40		3.6240E-03
			-160.40		3.8326E-03
			-157.40		3.8770E-03
			-154.40		4.0548E-03
			-151.40		3.7818E-03
			-148.40		4.3790E-03
			-145.40		5.3639E-03
			-142.40		5.2783E-03
			-139.40		5.8697E-03
			-136.40		6.0810E-03
			-133.40		7.1426E-03
			-130.40		7.0489E-03
			-127.40		7.2265E-03
			-124.40		7.8779E-03
			-121.40		8.9582E-03
			-118.40		9.3901E-03
			-115.40		10.401E-03
			-112.40		11.094E-03
			-109.40		12.186E-03
			-106.40		13.422E-03
			-103.40		13.851E-03
			-100.40		15.191E-03
			-97.40		17.635E-03
			-94.40		19.135E-03
			-91.40		21.980E-03
			-88.40		24.180E-03
			-85.40		26.826E-03
			-82.40		30.791E-03
			-79.40		36.393E-03
			-76.40		45.846E-03
			-73.40		70.689E-03
			-70.40		159.07E-03
			-67.40		358.88E-03
			-64.40		523.23E-03
			-61.40		592.50E-03
			-58.40		619.67E-03
			-55.40		633.97E-03
			-52.40		642.41E-03
			-49.40		648.89E-03
			-46.40		651.19E-03
			-43.40		654.17E-03
			-40.40		656.94E-03
			-37.40		661.78E-03
			-34.40		661.88E-03
			-31.40		663.74E-03
			-28.40		662.27E-03
			-25.40		665.35E-03
			-22.40		665.54E-03
			-19.40		665.64E-03
			-16.40		669.43E-03
			-13.40		672.59E-03
			0.00		668.73E-03
			13.40		674.04E-03
			16.40		669.66E-03
			19.40		668.73E-03
			22.40		667.35E-03
			25.40		666.42E-03
			28.40		665.50E-03
			31.40		663.03E-03
			34.40		660.47E-03
			37.40		662.79E-03
			40.40		660.01E-03
			43.40		657.45E-03
			46.40		655.47E-03
			49.40		649.76E-03
			52.40		646.25E-03
			55.40		634.94E-03
			58.40		624.00E-03
			61.40		600.36E-03
			64.40		540.74E-03
			67.40		388.54E-03
			70.40		182.70E-03
			73.40		77.804E-03
			76.40		48.430E-03
			79.40		37.348E-03
			82.40		31.440E-03
			85.40		26.905E-03
			88.40		24.376E-03
			91.40		21.487E-03
			94.40		19.239E-03
			97.40		17.649E-03
			100.40		16.000E-03
			103.40		14.922E-03
			106.40		13.379E-03
			109.40		11.951E-03
			112.40		10.682E-03
			115.40		10.112E-03
			118.40		8.6594E-03
			121.40		8.6830E-03
			124.40		7.6153E-03
			127.40		7.3401E-03
			130.40		7.2273E-03
			133.40		5.9989E-03
			136.40		5.3245E-03
			139.40		5.2538E-03
			142.40		4.4754E-03
			145.40		4.6435E-03
			148.40		4.4654E-03
			151.40		3.5418E-03
			154.40		3.8019E-03
			157.40		3.3277E-03
			160.40		2.6165E-03
			163.40		2.2627E-03
			166.40		2.7784E-03
			169.40		2.3436E-03
			172.40		2.4609E-03
		END_DATA
	END_SCAN  15
	BEGIN_SCAN  16
		TASK_NAME=MODE_INTERVAL
		PROGRAM=BeamAdjust 1.2
		MEAS_DATE=07-Oct-2010 14:21:59
		LINAC=A4
		MODALITY=X
		INPLANE_AXIS_DIR=GUN_TARGET
		CROSSPLANE_AXIS_DIR=LEFT_RIGHT
		DEPTH_AXIS_DIR=UP_DOWN
		ENERGY=6.00
		SSD=950.00
		WEDGE=None
		FIELD_INPLANE=100.00
		FIELD_CROSSPLANE=100.00
		FIELD_TYPE=RECTANGULAR
		GANTRY=0.00
		GANTRY_UPRIGHT_POSITION=0
		GANTRY_ROTATION=CW
		COLL_ANGLE=90.00
		COLL_OFFSET_INPLANE=0.00
		COLL_OFFSET_CROSSPLANE=0.00
		SCAN_DEVICE=STARCHECK
		ELECTROMETER=2D_ARRAY_INTERFACE
		DETECTOR=STARCHECK
		SCAN_CURVETYPE=INPLANE_PROFILE
		SCAN_DEPTH=0.00
		SCAN_OFFAXIS_CROSSPLANE=0.00
		SCAN_ANGLE=0.00
		SCAN_DIAGONAL=SECOND_DIAGONAL
		MEAS_PRESET=TIME_PRESET
		MEAS_TIME=10.000
		MEAS_UNIT=GY
		PRESSURE=1013.25
		TEMPERATURE=20.00
		NORM_TEMPERATURE=20.00
		CORRECTION_FACTOR=1.0000
		CORRECTIONS=AIR_DENSITY_CORR;
		BEGIN_DATA
			-172.40		3.1016E-03
			-169.40		2.6694E-03
			-166.40		2.5896E-03
			-163.40		2.9838E-03
			-160.40		2.8509E-03
			-157.40		3.3627E-03
			-154.40		3.8743E-03
			-151.40		3.8082E-03
			-148.40		4.3923E-03
			-145.40		4.5337E-03
			-142.40		5.2221E-03
			-139.40		5.3615E-03
			-136.40		5.2263E-03
			-133.40		6.4648E-03
			-130.40		7.1811E-03
			-127.40		7.3019E-03
			-124.40		8.1029E-03
			-121.40		8.8097E-03
			-118.40		9.1927E-03
			-115.40		9.7881E-03
			-112.40		10.503E-03
			-109.40		11.823E-03
			-106.40		12.810E-03
			-103.40		14.064E-03
			-100.40		15.730E-03
			-97.40		16.872E-03
			-94.40		18.288E-03
			-91.40		20.991E-03
			-88.40		22.631E-03
			-85.40		25.642E-03
			-82.40		28.949E-03
			-79.40		34.806E-03
			-76.40		43.242E-03
			-73.40		62.009E-03
			-70.40		126.57E-03
			-67.40		310.17E-03
			-64.40		503.13E-03
			-61.40		589.09E-03
			-58.40		621.93E-03
			-55.40		635.97E-03
			-52.40		648.35E-03
			-49.40		653.67E-03
			-46.40		657.03E-03
			-43.40		660.09E-03
			-40.40		662.29E-03
			-37.40		665.61E-03
			-34.40		665.36E-03
			-31.40		666.45E-03
			-28.40		668.66E-03
			-25.40		667.93E-03
			-22.40		666.02E-03
			-19.40		669.13E-03
			-16.40		670.89E-03
			-13.40		673.71E-03
			0.00		668.73E-03
			13.40		672.90E-03
			16.40		670.70E-03
			19.40		665.81E-03
			22.40		663.48E-03
			25.40		663.75E-03
			28.40		661.78E-03
			31.40		660.99E-03
			34.40		658.29E-03
			37.40		657.48E-03
			40.40		656.33E-03
			43.40		654.08E-03
			46.40		652.43E-03
			49.40		648.70E-03
			52.40		640.77E-03
			55.40		632.78E-03
			58.40		624.81E-03
			61.40		602.14E-03
			64.40		551.41E-03
			67.40		411.34E-03
			70.40		200.46E-03
			73.40		82.798E-03
			76.40		49.700E-03
			79.40		37.726E-03
			82.40		32.238E-03
			85.40		28.161E-03
			88.40		24.694E-03
			91.40		22.325E-03
			94.40		20.179E-03
			97.40		17.769E-03
			100.40		16.377E-03
			103.40		14.673E-03
			106.40		13.002E-03
			109.40		12.225E-03
			112.40		11.700E-03
			115.40		10.202E-03
			118.40		9.4123E-03
			121.40		8.8061E-03
			124.40		7.6757E-03
			127.40		7.4073E-03
			130.40		7.6593E-03
			133.40		6.4253E-03
			136.40		5.8018E-03
			139.40		5.9581E-03
			142.40		6.2256E-03
			145.40		5.4103E-03
			148.40		4.6607E-03
			151.40		4.1795E-03
			154.40		4.1355E-03
			157.40		3.8202E-03
			160.40		3.6234E-03
			163.40		3.9906E-03
			166.40		3.3523E-03
			169.40		2.9021E-03
			172.40		2.4792E-03
		END_DATA
	END_SCAN  16
END_SCAN_DATA
