BEGIN_SCAN_DATA
	FORMAT=CC-Export V1.9                  
	FILE_CREATION_DATE=07-Oct-2010 14:22:25
	LAST_MODIFIED=07-Oct-2010 14:22:25
	BEGIN_SCAN  1
		TASK_NAME=MODE_INTERVAL
		PROGRAM=BeamAdjust 1.2
		MEAS_DATE=07-Oct-2010 14:22:25
		LINAC=A4
		MODALITY=X
		INPLANE_AXIS_DIR=TARGET_GUN
		CROSSPLANE_AXIS_DIR=LEFT_RIGHT
		DEPTH_AXIS_DIR=UP_DOWN
		ENERGY=6.00
		SSD=950.00
		WEDGE=None
		FIELD_INPLANE=100.00
		FIELD_CROSSPLANE=100.00
		FIELD_TYPE=RECTANGULAR
		GANTRY=0.00
		GANTRY_UPRIGHT_POSITION=0
		GANTRY_ROTATION=CW
		COLL_ANGLE=90.00
		COLL_OFFSET_INPLANE=0.00
		COLL_OFFSET_CROSSPLANE=0.00
		SCAN_DEVICE=STARCHECK
		ELECTROMETER=2D_ARRAY_INTERFACE
		DETECTOR=STARCHECK
		SCAN_CURVETYPE=CROSSPLANE_PROFILE
		SCAN_DEPTH=0.00
		SCAN_OFFAXIS_INPLANE=-130.00
		SCAN_ANGLE=0.00
		SCAN_DIAGONAL=NOT_DIAGONAL
		MEAS_PRESET=TIME_PRESET
		MEAS_TIME=10.000
		MEAS_UNIT=GY
		PRESSURE=1013.25
		TEMPERATURE=20.00
		NORM_TEMPERATURE=20.00
		CORRECTION_FACTOR=1.0000
		CORRECTIONS=AIR_DENSITY_CORR;
		BEGIN_DATA
			-130.00		2.3752E-03
			-80.00		3.9430E-03
			-40.00		7.0090E-03
			40.00		6.4467E-03
			80.00		3.6818E-03
			130.00		1.9913E-03
		END_DATA
	END_SCAN  1
	BEGIN_SCAN  2
		TASK_NAME=MODE_INTERVAL
		PROGRAM=BeamAdjust 1.2
		MEAS_DATE=07-Oct-2010 14:22:25
		LINAC=A4
		MODALITY=X
		INPLANE_AXIS_DIR=TARGET_GUN
		CROSSPLANE_AXIS_DIR=LEFT_RIGHT
		DEPTH_AXIS_DIR=UP_DOWN
		ENERGY=6.00
		SSD=950.00
		WEDGE=None
		FIELD_INPLANE=100.00
		FIELD_CROSSPLANE=100.00
		FIELD_TYPE=RECTANGULAR
		GANTRY=0.00
		GANTRY_UPRIGHT_POSITION=0
		GANTRY_ROTATION=CW
		COLL_ANGLE=90.00
		COLL_OFFSET_INPLANE=0.00
		COLL_OFFSET_CROSSPLANE=0.00
		SCAN_DEVICE=STARCHECK
		ELECTROMETER=2D_ARRAY_INTERFACE
		DETECTOR=STARCHECK
		SCAN_CURVETYPE=CROSSPLANE_PROFILE
		SCAN_DEPTH=0.00
		SCAN_OFFAXIS_INPLANE=-100.00
		SCAN_ANGLE=0.00
		SCAN_DIAGONAL=NOT_DIAGONAL
		MEAS_PRESET=TIME_PRESET
		MEAS_TIME=10.000
		MEAS_UNIT=GY
		PRESSURE=1013.25
		TEMPERATURE=20.00
		NORM_TEMPERATURE=20.00
		CORRECTION_FACTOR=1.0000
		CORRECTIONS=AIR_DENSITY_CORR;
		BEGIN_DATA
			-60.00		10.041E-03
			-30.00		13.939E-03
			30.00		14.311E-03
			60.00		9.3829E-03
		END_DATA
	END_SCAN  2
	BEGIN_SCAN  3
		TASK_NAME=MODE_INTERVAL
		PROGRAM=BeamAdjust 1.2
		MEAS_DATE=07-Oct-2010 14:22:25
		LINAC=A4
		MODALITY=X
		INPLANE_AXIS_DIR=TARGET_GUN
		CROSSPLANE_AXIS_DIR=LEFT_RIGHT
		DEPTH_AXIS_DIR=UP_DOWN
		ENERGY=6.00
		SSD=950.00
		WEDGE=None
		FIELD_INPLANE=100.00
		FIELD_CROSSPLANE=100.00
		FIELD_TYPE=RECTANGULAR
		GANTRY=0.00
		GANTRY_UPRIGHT_POSITION=0
		GANTRY_ROTATION=CW
		COLL_ANGLE=90.00
		COLL_OFFSET_INPLANE=0.00
		COLL_OFFSET_CROSSPLANE=0.00
		SCAN_DEVICE=STARCHECK
		ELECTROMETER=2D_ARRAY_INTERFACE
		DETECTOR=STARCHECK
		SCAN_CURVETYPE=CROSSPLANE_PROFILE
		SCAN_DEPTH=0.00
		SCAN_OFFAXIS_INPLANE=-50.00
		SCAN_ANGLE=0.00
		SCAN_DIAGONAL=NOT_DIAGONAL
		MEAS_PRESET=TIME_PRESET
		MEAS_TIME=10.000
		MEAS_UNIT=GY
		PRESSURE=1013.25
		TEMPERATURE=20.00
		NORM_TEMPERATURE=20.00
		CORRECTION_FACTOR=1.0000
		CORRECTIONS=AIR_DENSITY_CORR;
		BEGIN_DATA
			-30.00		243.82E-03
			-15.00		210.57E-03
			15.00		232.53E-03
			30.00		241.13E-03
		END_DATA
	END_SCAN  3
	BEGIN_SCAN  4
		TASK_NAME=MODE_INTERVAL
		PROGRAM=BeamAdjust 1.2
		MEAS_DATE=07-Oct-2010 14:22:25
		LINAC=A4
		MODALITY=X
		INPLANE_AXIS_DIR=TARGET_GUN
		CROSSPLANE_AXIS_DIR=LEFT_RIGHT
		DEPTH_AXIS_DIR=UP_DOWN
		ENERGY=6.00
		SSD=950.00
		WEDGE=None
		FIELD_INPLANE=100.00
		FIELD_CROSSPLANE=100.00
		FIELD_TYPE=RECTANGULAR
		GANTRY=0.00
		GANTRY_UPRIGHT_POSITION=0
		GANTRY_ROTATION=CW
		COLL_ANGLE=90.00
		COLL_OFFSET_INPLANE=0.00
		COLL_OFFSET_CROSSPLANE=0.00
		SCAN_DEVICE=STARCHECK
		ELECTROMETER=2D_ARRAY_INTERFACE
		DETECTOR=STARCHECK
		SCAN_CURVETYPE=CROSSPLANE_PROFILE
		SCAN_DEPTH=0.00
		SCAN_OFFAXIS_INPLANE=0.00
		SCAN_ANGLE=0.00
		SCAN_DIAGONAL=NOT_DIAGONAL
		MEAS_PRESET=TIME_PRESET
		MEAS_TIME=10.000
		MEAS_UNIT=GY
		PRESSURE=1013.25
		TEMPERATURE=20.00
		NORM_TEMPERATURE=20.00
		CORRECTION_FACTOR=1.0000
		CORRECTIONS=AIR_DENSITY_CORR;
		BEGIN_DATA
			-126.00		6.1872E-03
			-123.00		7.4951E-03
			-120.00		7.5196E-03
			-117.00		8.5971E-03
			-114.00		8.8589E-03
			-111.00		9.0596E-03
			-108.00		10.349E-03
			-105.00		10.790E-03
			-102.00		11.729E-03
			-99.00		12.853E-03
			-96.00		13.625E-03
			-93.00		15.428E-03
			-90.00		16.090E-03
			-87.00		18.509E-03
			-84.00		20.442E-03
			-81.00		21.528E-03
			-78.00		23.931E-03
			-75.00		26.957E-03
			-72.00		29.655E-03
			-69.00		33.883E-03
			-66.00		39.286E-03
			-63.00		44.996E-03
			-60.00		54.664E-03
			-57.00		72.621E-03
			-54.00		113.64E-03
			-51.00		290.13E-03
			-48.00		555.04E-03
			-45.00		617.89E-03
			-42.00		637.01E-03
			-39.00		649.51E-03
			-36.00		655.54E-03
			-33.00		655.81E-03
			-30.00		658.10E-03
			-27.00		660.56E-03
			-24.00		663.30E-03
			-21.00		663.00E-03
			-18.00		668.68E-03
			-15.00		669.94E-03
			-12.00		668.78E-03
			-9.00		670.88E-03
			-6.00		669.83E-03
			0.00		668.95E-03
			6.00		672.75E-03
			9.00		671.89E-03
			12.00		669.00E-03
			15.00		668.40E-03
			18.00		667.85E-03
			21.00		665.59E-03
			24.00		662.51E-03
			27.00		666.07E-03
			30.00		664.70E-03
			33.00		662.61E-03
			36.00		658.41E-03
			39.00		652.62E-03
			42.00		641.38E-03
			45.00		616.30E-03
			48.00		527.72E-03
			51.00		234.20E-03
			54.00		102.13E-03
			57.00		68.738E-03
			60.00		52.896E-03
			63.00		44.250E-03
			66.00		37.732E-03
			69.00		33.056E-03
			72.00		29.476E-03
			75.00		26.210E-03
			78.00		23.962E-03
			81.00		21.827E-03
			84.00		19.380E-03
			87.00		17.948E-03
			90.00		16.948E-03
			93.00		14.726E-03
			96.00		13.410E-03
			99.00		12.479E-03
			102.00		11.640E-03
			105.00		11.105E-03
			108.00		9.9277E-03
			111.00		9.1604E-03
			114.00		8.7188E-03
			117.00		8.0331E-03
			120.00		7.2335E-03
			123.00		6.9901E-03
			126.00		7.1212E-03
		END_DATA
	END_SCAN  4
	BEGIN_SCAN  5
		TASK_NAME=MODE_INTERVAL
		PROGRAM=BeamAdjust 1.2
		MEAS_DATE=07-Oct-2010 14:22:25
		LINAC=A4
		MODALITY=X
		INPLANE_AXIS_DIR=TARGET_GUN
		CROSSPLANE_AXIS_DIR=LEFT_RIGHT
		DEPTH_AXIS_DIR=UP_DOWN
		ENERGY=6.00
		SSD=950.00
		WEDGE=None
		FIELD_INPLANE=100.00
		FIELD_CROSSPLANE=100.00
		FIELD_TYPE=RECTANGULAR
		GANTRY=0.00
		GANTRY_UPRIGHT_POSITION=0
		GANTRY_ROTATION=CW
		COLL_ANGLE=90.00
		COLL_OFFSET_INPLANE=0.00
		COLL_OFFSET_CROSSPLANE=0.00
		SCAN_DEVICE=STARCHECK
		ELECTROMETER=2D_ARRAY_INTERFACE
		DETECTOR=STARCHECK
		SCAN_CURVETYPE=CROSSPLANE_PROFILE
		SCAN_DEPTH=0.00
		SCAN_OFFAXIS_INPLANE=50.00
		SCAN_ANGLE=0.00
		SCAN_DIAGONAL=NOT_DIAGONAL
		MEAS_PRESET=TIME_PRESET
		MEAS_TIME=10.000
		MEAS_UNIT=GY
		PRESSURE=1013.25
		TEMPERATURE=20.00
		NORM_TEMPERATURE=20.00
		CORRECTION_FACTOR=1.0000
		CORRECTIONS=AIR_DENSITY_CORR;
		BEGIN_DATA
			-30.00		419.64E-03
			-15.00		435.02E-03
			15.00		404.97E-03
			30.00		409.33E-03
		END_DATA
	END_SCAN  5
	BEGIN_SCAN  6
		TASK_NAME=MODE_INTERVAL
		PROGRAM=BeamAdjust 1.2
		MEAS_DATE=07-Oct-2010 14:22:25
		LINAC=A4
		MODALITY=X
		INPLANE_AXIS_DIR=TARGET_GUN
		CROSSPLANE_AXIS_DIR=LEFT_RIGHT
		DEPTH_AXIS_DIR=UP_DOWN
		ENERGY=6.00
		SSD=950.00
		WEDGE=None
		FIELD_INPLANE=100.00
		FIELD_CROSSPLANE=100.00
		FIELD_TYPE=RECTANGULAR
		GANTRY=0.00
		GANTRY_UPRIGHT_POSITION=0
		GANTRY_ROTATION=CW
		COLL_ANGLE=90.00
		COLL_OFFSET_INPLANE=0.00
		COLL_OFFSET_CROSSPLANE=0.00
		SCAN_DEVICE=STARCHECK
		ELECTROMETER=2D_ARRAY_INTERFACE
		DETECTOR=STARCHECK
		SCAN_CURVETYPE=CROSSPLANE_PROFILE
		SCAN_DEPTH=0.00
		SCAN_OFFAXIS_INPLANE=100.00
		SCAN_ANGLE=0.00
		SCAN_DIAGONAL=NOT_DIAGONAL
		MEAS_PRESET=TIME_PRESET
		MEAS_TIME=10.000
		MEAS_UNIT=GY
		PRESSURE=1013.25
		TEMPERATURE=20.00
		NORM_TEMPERATURE=20.00
		CORRECTION_FACTOR=1.0000
		CORRECTIONS=AIR_DENSITY_CORR;
		BEGIN_DATA
			-60.00		10.652E-03
			-30.00		15.324E-03
			30.00		15.632E-03
			60.00		9.7832E-03
		END_DATA
	END_SCAN  6
	BEGIN_SCAN  7
		TASK_NAME=MODE_INTERVAL
		PROGRAM=BeamAdjust 1.2
		MEAS_DATE=07-Oct-2010 14:22:25
		LINAC=A4
		MODALITY=X
		INPLANE_AXIS_DIR=TARGET_GUN
		CROSSPLANE_AXIS_DIR=LEFT_RIGHT
		DEPTH_AXIS_DIR=UP_DOWN
		ENERGY=6.00
		SSD=950.00
		WEDGE=None
		FIELD_INPLANE=100.00
		FIELD_CROSSPLANE=100.00
		FIELD_TYPE=RECTANGULAR
		GANTRY=0.00
		GANTRY_UPRIGHT_POSITION=0
		GANTRY_ROTATION=CW
		COLL_ANGLE=90.00
		COLL_OFFSET_INPLANE=0.00
		COLL_OFFSET_CROSSPLANE=0.00
		SCAN_DEVICE=STARCHECK
		ELECTROMETER=2D_ARRAY_INTERFACE
		DETECTOR=STARCHECK
		SCAN_CURVETYPE=CROSSPLANE_PROFILE
		SCAN_DEPTH=0.00
		SCAN_OFFAXIS_INPLANE=130.00
		SCAN_ANGLE=0.00
		SCAN_DIAGONAL=NOT_DIAGONAL
		MEAS_PRESET=TIME_PRESET
		MEAS_TIME=10.000
		MEAS_UNIT=GY
		PRESSURE=1013.25
		TEMPERATURE=20.00
		NORM_TEMPERATURE=20.00
		CORRECTION_FACTOR=1.0000
		CORRECTIONS=AIR_DENSITY_CORR;
		BEGIN_DATA
			-130.00		2.1544E-03
			-80.00		4.0244E-03
			-40.00		8.0170E-03
			40.00		7.3628E-03
			80.00		3.9406E-03
			130.00		2.6685E-03
		END_DATA
	END_SCAN  7
	BEGIN_SCAN  8
		TASK_NAME=MODE_INTERVAL
		PROGRAM=BeamAdjust 1.2
		MEAS_DATE=07-Oct-2010 14:22:25
		LINAC=A4
		MODALITY=X
		INPLANE_AXIS_DIR=TARGET_GUN
		CROSSPLANE_AXIS_DIR=LEFT_RIGHT
		DEPTH_AXIS_DIR=UP_DOWN
		ENERGY=6.00
		SSD=950.00
		WEDGE=None
		FIELD_INPLANE=100.00
		FIELD_CROSSPLANE=100.00
		FIELD_TYPE=RECTANGULAR
		GANTRY=0.00
		GANTRY_UPRIGHT_POSITION=0
		GANTRY_ROTATION=CW
		COLL_ANGLE=90.00
		COLL_OFFSET_INPLANE=0.00
		COLL_OFFSET_CROSSPLANE=0.00
		SCAN_DEVICE=STARCHECK
		ELECTROMETER=2D_ARRAY_INTERFACE
		DETECTOR=STARCHECK
		SCAN_CURVETYPE=INPLANE_PROFILE
		SCAN_DEPTH=0.00
		SCAN_OFFAXIS_CROSSPLANE=-130.00
		SCAN_ANGLE=0.00
		SCAN_DIAGONAL=NOT_DIAGONAL
		MEAS_PRESET=TIME_PRESET
		MEAS_TIME=10.000
		MEAS_UNIT=GY
		PRESSURE=1013.25
		TEMPERATURE=20.00
		NORM_TEMPERATURE=20.00
		CORRECTION_FACTOR=1.0000
		CORRECTIONS=AIR_DENSITY_CORR;
		BEGIN_DATA
			-130.00		2.3752E-03
			-125.00		2.4598E-03
			-120.00		2.7940E-03
			-115.00		3.6526E-03
			-110.00		2.9325E-03
			-105.00		3.4803E-03
			-100.00		4.1417E-03
			-95.00		4.1004E-03
			-90.00		5.1484E-03
			-85.00		4.4031E-03
			-80.00		4.0279E-03
			-75.00		4.9277E-03
			-70.00		4.7681E-03
			-65.00		4.7313E-03
			-60.00		5.5533E-03
			-55.00		5.5951E-03
			-50.00		4.2093E-03
			-45.00		4.7576E-03
			-40.00		4.5165E-03
			-35.00		5.5328E-03
			-30.00		5.3981E-03
			-25.00		4.8524E-03
			-20.00		5.8069E-03
			-15.00		4.8609E-03
			-10.00		5.0545E-03
			-5.00		5.9784E-03
			0.00		6.0584E-03
			5.00		6.6124E-03
			10.00		5.6848E-03
			15.00		5.7214E-03
			20.00		5.4753E-03
			25.00		4.9064E-03
			30.00		5.6976E-03
			35.00		5.4718E-03
			40.00		4.7095E-03
			45.00		4.8815E-03
			50.00		5.4118E-03
			55.00		4.2729E-03
			60.00		4.9561E-03
			65.00		3.6966E-03
			70.00		3.9285E-03
			75.00		4.1293E-03
			80.00		3.3977E-03
			85.00		3.7257E-03
			90.00		3.5961E-03
			95.00		2.9285E-03
			100.00		3.0818E-03
			105.00		2.5533E-03
			110.00		2.3114E-03
			115.00		2.3990E-03
			120.00		2.8055E-03
			125.00		2.1354E-03
			130.00		2.1544E-03
		END_DATA
	END_SCAN  8
	BEGIN_SCAN  9
		TASK_NAME=MODE_INTERVAL
		PROGRAM=BeamAdjust 1.2
		MEAS_DATE=07-Oct-2010 14:22:25
		LINAC=A4
		MODALITY=X
		INPLANE_AXIS_DIR=TARGET_GUN
		CROSSPLANE_AXIS_DIR=LEFT_RIGHT
		DEPTH_AXIS_DIR=UP_DOWN
		ENERGY=6.00
		SSD=950.00
		WEDGE=None
		FIELD_INPLANE=100.00
		FIELD_CROSSPLANE=100.00
		FIELD_TYPE=RECTANGULAR
		GANTRY=0.00
		GANTRY_UPRIGHT_POSITION=0
		GANTRY_ROTATION=CW
		COLL_ANGLE=90.00
		COLL_OFFSET_INPLANE=0.00
		COLL_OFFSET_CROSSPLANE=0.00
		SCAN_DEVICE=STARCHECK
		ELECTROMETER=2D_ARRAY_INTERFACE
		DETECTOR=STARCHECK
		SCAN_CURVETYPE=INPLANE_PROFILE
		SCAN_DEPTH=0.00
		SCAN_OFFAXIS_CROSSPLANE=-100.00
		SCAN_ANGLE=0.00
		SCAN_DIAGONAL=NOT_DIAGONAL
		MEAS_PRESET=TIME_PRESET
		MEAS_TIME=10.000
		MEAS_UNIT=GY
		PRESSURE=1013.25
		TEMPERATURE=20.00
		NORM_TEMPERATURE=20.00
		CORRECTION_FACTOR=1.0000
		CORRECTIONS=AIR_DENSITY_CORR;
		BEGIN_DATA
			-60.00		8.2914E-03
			-30.00		10.179E-03
			30.00		10.202E-03
			60.00		8.1387E-03
		END_DATA
	END_SCAN  9
	BEGIN_SCAN  10
		TASK_NAME=MODE_INTERVAL
		PROGRAM=BeamAdjust 1.2
		MEAS_DATE=07-Oct-2010 14:22:25
		LINAC=A4
		MODALITY=X
		INPLANE_AXIS_DIR=TARGET_GUN
		CROSSPLANE_AXIS_DIR=LEFT_RIGHT
		DEPTH_AXIS_DIR=UP_DOWN
		ENERGY=6.00
		SSD=950.00
		WEDGE=None
		FIELD_INPLANE=100.00
		FIELD_CROSSPLANE=100.00
		FIELD_TYPE=RECTANGULAR
		GANTRY=0.00
		GANTRY_UPRIGHT_POSITION=0
		GANTRY_ROTATION=CW
		COLL_ANGLE=90.00
		COLL_OFFSET_INPLANE=0.00
		COLL_OFFSET_CROSSPLANE=0.00
		SCAN_DEVICE=STARCHECK
		ELECTROMETER=2D_ARRAY_INTERFACE
		DETECTOR=STARCHECK
		SCAN_CURVETYPE=INPLANE_PROFILE
		SCAN_DEPTH=0.00
		SCAN_OFFAXIS_CROSSPLANE=-50.00
		SCAN_ANGLE=0.00
		SCAN_DIAGONAL=NOT_DIAGONAL
		MEAS_PRESET=TIME_PRESET
		MEAS_TIME=10.000
		MEAS_UNIT=GY
		PRESSURE=1013.25
		TEMPERATURE=20.00
		NORM_TEMPERATURE=20.00
		CORRECTION_FACTOR=1.0000
		CORRECTIONS=AIR_DENSITY_CORR;
		BEGIN_DATA
			-30.00		395.53E-03
			-15.00		393.27E-03
			15.00		383.02E-03
			30.00		372.54E-03
		END_DATA
	END_SCAN  10
	BEGIN_SCAN  11
		TASK_NAME=MODE_INTERVAL
		PROGRAM=BeamAdjust 1.2
		MEAS_DATE=07-Oct-2010 14:22:25
		LINAC=A4
		MODALITY=X
		INPLANE_AXIS_DIR=TARGET_GUN
		CROSSPLANE_AXIS_DIR=LEFT_RIGHT
		DEPTH_AXIS_DIR=UP_DOWN
		ENERGY=6.00
		SSD=950.00
		WEDGE=None
		FIELD_INPLANE=100.00
		FIELD_CROSSPLANE=100.00
		FIELD_TYPE=RECTANGULAR
		GANTRY=0.00
		GANTRY_UPRIGHT_POSITION=0
		GANTRY_ROTATION=CW
		COLL_ANGLE=90.00
		COLL_OFFSET_INPLANE=0.00
		COLL_OFFSET_CROSSPLANE=0.00
		SCAN_DEVICE=STARCHECK
		ELECTROMETER=2D_ARRAY_INTERFACE
		DETECTOR=STARCHECK
		SCAN_CURVETYPE=INPLANE_PROFILE
		SCAN_DEPTH=0.00
		SCAN_OFFAXIS_CROSSPLANE=0.00
		SCAN_ANGLE=0.00
		SCAN_DIAGONAL=NOT_DIAGONAL
		MEAS_PRESET=TIME_PRESET
		MEAS_TIME=10.000
		MEAS_UNIT=GY
		PRESSURE=1013.25
		TEMPERATURE=20.00
		NORM_TEMPERATURE=20.00
		CORRECTION_FACTOR=1.0000
		CORRECTIONS=AIR_DENSITY_CORR;
		BEGIN_DATA
			-126.00		8.6595E-03
			-123.00		8.6874E-03
			-120.00		10.153E-03
			-117.00		10.784E-03
			-114.00		11.617E-03
			-111.00		12.083E-03
			-108.00		13.007E-03
			-105.00		14.194E-03
			-102.00		15.401E-03
			-99.00		16.073E-03
			-96.00		17.181E-03
			-93.00		19.496E-03
			-90.00		20.833E-03
			-87.00		22.664E-03
			-84.00		24.826E-03
			-81.00		26.660E-03
			-78.00		28.989E-03
			-75.00		31.583E-03
			-72.00		34.367E-03
			-69.00		37.852E-03
			-66.00		42.464E-03
			-63.00		48.128E-03
			-60.00		55.652E-03
			-57.00		69.040E-03
			-54.00		95.055E-03
			-51.00		174.59E-03
			-48.00		415.47E-03
			-45.00		596.27E-03
			-42.00		634.56E-03
			-39.00		648.65E-03
			-36.00		656.22E-03
			-33.00		660.85E-03
			-30.00		665.16E-03
			-27.00		667.22E-03
			-24.00		666.10E-03
			-21.00		665.35E-03
			-18.00		671.32E-03
			-15.00		669.90E-03
			-12.00		672.43E-03
			-9.00		673.04E-03
			-6.00		670.10E-03
			0.00		668.95E-03
			6.00		673.26E-03
			9.00		672.37E-03
			12.00		672.21E-03
			15.00		671.03E-03
			18.00		665.75E-03
			21.00		664.78E-03
			24.00		661.88E-03
			27.00		663.27E-03
			30.00		659.76E-03
			33.00		658.17E-03
			36.00		656.31E-03
			39.00		647.01E-03
			42.00		639.81E-03
			45.00		623.10E-03
			48.00		562.00E-03
			51.00		327.53E-03
			54.00		141.59E-03
			57.00		84.066E-03
			60.00		63.420E-03
			63.00		52.637E-03
			66.00		46.234E-03
			69.00		40.824E-03
			72.00		36.659E-03
			75.00		32.810E-03
			78.00		29.251E-03
			81.00		26.928E-03
			84.00		25.173E-03
			87.00		23.049E-03
			90.00		21.762E-03
			93.00		19.750E-03
			96.00		18.348E-03
			99.00		16.675E-03
			102.00		14.964E-03
			105.00		14.073E-03
			108.00		13.538E-03
			111.00		12.117E-03
			114.00		11.805E-03
			117.00		10.636E-03
			120.00		10.041E-03
			123.00		9.2049E-03
			126.00		8.3679E-03
		END_DATA
	END_SCAN  11
	BEGIN_SCAN  12
		TASK_NAME=MODE_INTERVAL
		PROGRAM=BeamAdjust 1.2
		MEAS_DATE=07-Oct-2010 14:22:25
		LINAC=A4
		MODALITY=X
		INPLANE_AXIS_DIR=TARGET_GUN
		CROSSPLANE_AXIS_DIR=LEFT_RIGHT
		DEPTH_AXIS_DIR=UP_DOWN
		ENERGY=6.00
		SSD=950.00
		WEDGE=None
		FIELD_INPLANE=100.00
		FIELD_CROSSPLANE=100.00
		FIELD_TYPE=RECTANGULAR
		GANTRY=0.00
		GANTRY_UPRIGHT_POSITION=0
		GANTRY_ROTATION=CW
		COLL_ANGLE=90.00
		COLL_OFFSET_INPLANE=0.00
		COLL_OFFSET_CROSSPLANE=0.00
		SCAN_DEVICE=STARCHECK
		ELECTROMETER=2D_ARRAY_INTERFACE
		DETECTOR=STARCHECK
		SCAN_CURVETYPE=INPLANE_PROFILE
		SCAN_DEPTH=0.00
		SCAN_OFFAXIS_CROSSPLANE=50.00
		SCAN_ANGLE=0.00
		SCAN_DIAGONAL=NOT_DIAGONAL
		MEAS_PRESET=TIME_PRESET
		MEAS_TIME=10.000
		MEAS_UNIT=GY
		PRESSURE=1013.25
		TEMPERATURE=20.00
		NORM_TEMPERATURE=20.00
		CORRECTION_FACTOR=1.0000
		CORRECTIONS=AIR_DENSITY_CORR;
		BEGIN_DATA
			-30.00		327.48E-03
			-15.00		337.27E-03
			15.00		345.58E-03
			30.00		347.20E-03
		END_DATA
	END_SCAN  12
	BEGIN_SCAN  13
		TASK_NAME=MODE_INTERVAL
		PROGRAM=BeamAdjust 1.2
		MEAS_DATE=07-Oct-2010 14:22:25
		LINAC=A4
		MODALITY=X
		INPLANE_AXIS_DIR=TARGET_GUN
		CROSSPLANE_AXIS_DIR=LEFT_RIGHT
		DEPTH_AXIS_DIR=UP_DOWN
		ENERGY=6.00
		SSD=950.00
		WEDGE=None
		FIELD_INPLANE=100.00
		FIELD_CROSSPLANE=100.00
		FIELD_TYPE=RECTANGULAR
		GANTRY=0.00
		GANTRY_UPRIGHT_POSITION=0
		GANTRY_ROTATION=CW
		COLL_ANGLE=90.00
		COLL_OFFSET_INPLANE=0.00
		COLL_OFFSET_CROSSPLANE=0.00
		SCAN_DEVICE=STARCHECK
		ELECTROMETER=2D_ARRAY_INTERFACE
		DETECTOR=STARCHECK
		SCAN_CURVETYPE=INPLANE_PROFILE
		SCAN_DEPTH=0.00
		SCAN_OFFAXIS_CROSSPLANE=100.00
		SCAN_ANGLE=0.00
		SCAN_DIAGONAL=NOT_DIAGONAL
		MEAS_PRESET=TIME_PRESET
		MEAS_TIME=10.000
		MEAS_UNIT=GY
		PRESSURE=1013.25
		TEMPERATURE=20.00
		NORM_TEMPERATURE=20.00
		CORRECTION_FACTOR=1.0000
		CORRECTIONS=AIR_DENSITY_CORR;
		BEGIN_DATA
			-60.00		7.5977E-03
			-30.00		10.312E-03
			30.00		10.434E-03
			60.00		7.4080E-03
		END_DATA
	END_SCAN  13
	BEGIN_SCAN  14
		TASK_NAME=MODE_INTERVAL
		PROGRAM=BeamAdjust 1.2
		MEAS_DATE=07-Oct-2010 14:22:25
		LINAC=A4
		MODALITY=X
		INPLANE_AXIS_DIR=TARGET_GUN
		CROSSPLANE_AXIS_DIR=LEFT_RIGHT
		DEPTH_AXIS_DIR=UP_DOWN
		ENERGY=6.00
		SSD=950.00
		WEDGE=None
		FIELD_INPLANE=100.00
		FIELD_CROSSPLANE=100.00
		FIELD_TYPE=RECTANGULAR
		GANTRY=0.00
		GANTRY_UPRIGHT_POSITION=0
		GANTRY_ROTATION=CW
		COLL_ANGLE=90.00
		COLL_OFFSET_INPLANE=0.00
		COLL_OFFSET_CROSSPLANE=0.00
		SCAN_DEVICE=STARCHECK
		ELECTROMETER=2D_ARRAY_INTERFACE
		DETECTOR=STARCHECK
		SCAN_CURVETYPE=INPLANE_PROFILE
		SCAN_DEPTH=0.00
		SCAN_OFFAXIS_CROSSPLANE=130.00
		SCAN_ANGLE=0.00
		SCAN_DIAGONAL=NOT_DIAGONAL
		MEAS_PRESET=TIME_PRESET
		MEAS_TIME=10.000
		MEAS_UNIT=GY
		PRESSURE=1013.25
		TEMPERATURE=20.00
		NORM_TEMPERATURE=20.00
		CORRECTION_FACTOR=1.0000
		CORRECTIONS=AIR_DENSITY_CORR;
		BEGIN_DATA
			-130.00		1.9913E-03
			-125.00		2.2466E-03
			-120.00		2.2113E-03
			-115.00		2.5907E-03
			-110.00		2.5018E-03
			-105.00		2.7208E-03
			-100.00		2.8723E-03
			-95.00		3.0805E-03
			-90.00		2.4614E-03
			-85.00		3.5970E-03
			-80.00		3.6282E-03
			-75.00		3.1800E-03
			-70.00		3.7495E-03
			-65.00		3.8742E-03
			-60.00		4.4164E-03
			-55.00		4.1347E-03
			-50.00		4.2782E-03
			-45.00		4.4552E-03
			-40.00		4.8167E-03
			-35.00		5.1057E-03
			-30.00		5.0321E-03
			-25.00		5.1658E-03
			-20.00		5.2807E-03
			-15.00		4.9649E-03
			-10.00		5.3409E-03
			-5.00		5.3451E-03
			0.00		6.0875E-03
			5.00		5.7313E-03
			10.00		5.7046E-03
			15.00		5.2206E-03
			20.00		5.2817E-03
			25.00		5.5221E-03
			30.00		4.8098E-03
			35.00		5.2139E-03
			40.00		5.7607E-03
			45.00		5.0815E-03
			50.00		4.8973E-03
			55.00		5.2381E-03
			60.00		5.1092E-03
			65.00		4.2446E-03
			70.00		4.1407E-03
			75.00		4.1578E-03
			80.00		4.1245E-03
			85.00		3.8594E-03
			90.00		3.3060E-03
			95.00		3.6072E-03
			100.00		3.6432E-03
			105.00		2.5491E-03
			110.00		3.0315E-03
			115.00		2.5369E-03
			120.00		2.7699E-03
			125.00		2.5441E-03
			130.00		2.6685E-03
		END_DATA
	END_SCAN  14
	BEGIN_SCAN  15
		TASK_NAME=MODE_INTERVAL
		PROGRAM=BeamAdjust 1.2
		MEAS_DATE=07-Oct-2010 14:22:25
		LINAC=A4
		MODALITY=X
		INPLANE_AXIS_DIR=TARGET_GUN
		CROSSPLANE_AXIS_DIR=LEFT_RIGHT
		DEPTH_AXIS_DIR=UP_DOWN
		ENERGY=6.00
		SSD=950.00
		WEDGE=None
		FIELD_INPLANE=100.00
		FIELD_CROSSPLANE=100.00
		FIELD_TYPE=RECTANGULAR
		GANTRY=0.00
		GANTRY_UPRIGHT_POSITION=0
		GANTRY_ROTATION=CW
		COLL_ANGLE=90.00
		COLL_OFFSET_INPLANE=0.00
		COLL_OFFSET_CROSSPLANE=0.00
		SCAN_DEVICE=STARCHECK
		ELECTROMETER=2D_ARRAY_INTERFACE
		DETECTOR=STARCHECK
		SCAN_CURVETYPE=INPLANE_PROFILE
		SCAN_DEPTH=0.00
		SCAN_OFFAXIS_CROSSPLANE=0.00
		SCAN_ANGLE=0.00
		SCAN_DIAGONAL=FIRST_DIAGONAL
		MEAS_PRESET=TIME_PRESET
		MEAS_TIME=10.000
		MEAS_UNIT=GY
		PRESSURE=1013.25
		TEMPERATURE=20.00
		NORM_TEMPERATURE=20.00
		CORRECTION_FACTOR=1.0000
		CORRECTIONS=AIR_DENSITY_CORR;
		BEGIN_DATA
			-172.40		3.0786E-03
			-169.40		2.7391E-03
			-166.40		3.8440E-03
			-163.40		3.3448E-03
			-160.40		3.6999E-03
			-157.40		3.8666E-03
			-154.40		3.9062E-03
			-151.40		3.9036E-03
			-148.40		4.6159E-03
			-145.40		5.0214E-03
			-142.40		5.4742E-03
			-139.40		5.7922E-03
			-136.40		5.7518E-03
			-133.40		6.5724E-03
			-130.40		7.6567E-03
			-127.40		7.3051E-03
			-124.40		7.6748E-03
			-121.40		8.8324E-03
			-118.40		9.6771E-03
			-115.40		10.463E-03
			-112.40		10.778E-03
			-109.40		12.418E-03
			-106.40		13.465E-03
			-103.40		13.782E-03
			-100.40		15.204E-03
			-97.40		17.515E-03
			-94.40		19.083E-03
			-91.40		21.361E-03
			-88.40		24.317E-03
			-85.40		26.836E-03
			-82.40		30.470E-03
			-79.40		36.054E-03
			-76.40		44.967E-03
			-73.40		67.500E-03
			-70.40		148.11E-03
			-67.40		339.93E-03
			-64.40		510.81E-03
			-61.40		588.90E-03
			-58.40		618.38E-03
			-55.40		633.67E-03
			-52.40		642.39E-03
			-49.40		648.25E-03
			-46.40		652.24E-03
			-43.40		654.30E-03
			-40.40		657.19E-03
			-37.40		662.34E-03
			-34.40		662.29E-03
			-31.40		664.12E-03
			-28.40		663.05E-03
			-25.40		665.72E-03
			-22.40		665.74E-03
			-19.40		665.82E-03
			-16.40		669.76E-03
			-13.40		672.99E-03
			0.00		668.95E-03
			13.40		673.62E-03
			16.40		669.51E-03
			19.40		668.82E-03
			22.40		667.07E-03
			25.40		666.92E-03
			28.40		664.90E-03
			31.40		662.73E-03
			34.40		660.12E-03
			37.40		662.34E-03
			40.40		659.85E-03
			43.40		656.78E-03
			46.40		655.22E-03
			49.40		649.71E-03
			52.40		646.26E-03
			55.40		634.80E-03
			58.40		624.04E-03
			61.40		602.60E-03
			64.40		546.91E-03
			67.40		402.20E-03
			70.40		194.88E-03
			73.40		81.383E-03
			76.40		49.435E-03
			79.40		38.084E-03
			82.40		31.272E-03
			85.40		27.210E-03
			88.40		24.958E-03
			91.40		21.252E-03
			94.40		19.593E-03
			97.40		18.064E-03
			100.40		15.913E-03
			103.40		15.032E-03
			106.40		13.508E-03
			109.40		12.271E-03
			112.40		10.511E-03
			115.40		10.150E-03
			118.40		8.9832E-03
			121.40		8.2790E-03
			124.40		8.0708E-03
			127.40		7.4186E-03
			130.40		7.0496E-03
			133.40		6.3114E-03
			136.40		5.2905E-03
			139.40		4.6912E-03
			142.40		5.3164E-03
			145.40		4.1457E-03
			148.40		4.5734E-03
			151.40		3.5031E-03
			154.40		3.4754E-03
			157.40		3.4257E-03
			160.40		2.5275E-03
			163.40		2.0706E-03
			166.40		2.9450E-03
			169.40		2.2558E-03
			172.40		2.4355E-03
		END_DATA
	END_SCAN  15
	BEGIN_SCAN  16
		TASK_NAME=MODE_INTERVAL
		PROGRAM=BeamAdjust 1.2
		MEAS_DATE=07-Oct-2010 14:22:25
		LINAC=A4
		MODALITY=X
		INPLANE_AXIS_DIR=GUN_TARGET
		CROSSPLANE_AXIS_DIR=LEFT_RIGHT
		DEPTH_AXIS_DIR=UP_DOWN
		ENERGY=6.00
		SSD=950.00
		WEDGE=None
		FIELD_INPLANE=100.00
		FIELD_CROSSPLANE=100.00
		FIELD_TYPE=RECTANGULAR
		GANTRY=0.00
		GANTRY_UPRIGHT_POSITION=0
		GANTRY_ROTATION=CW
		COLL_ANGLE=90.00
		COLL_OFFSET_INPLANE=0.00
		COLL_OFFSET_CROSSPLANE=0.00
		SCAN_DEVICE=STARCHECK
		ELECTROMETER=2D_ARRAY_INTERFACE
		DETECTOR=STARCHECK
		SCAN_CURVETYPE=INPLANE_PROFILE
		SCAN_DEPTH=0.00
		SCAN_OFFAXIS_CROSSPLANE=0.00
		SCAN_ANGLE=0.00
		SCAN_DIAGONAL=SECOND_DIAGONAL
		MEAS_PRESET=TIME_PRESET
		MEAS_TIME=10.000
		MEAS_UNIT=GY
		PRESSURE=1013.25
		TEMPERATURE=20.00
		NORM_TEMPERATURE=20.00
		CORRECTION_FACTOR=1.0000
		CORRECTIONS=AIR_DENSITY_CORR;
		BEGIN_DATA
			-172.40		2.6882E-03
			-169.40		2.6457E-03
			-166.40		2.5955E-03
			-163.40		2.6897E-03
			-160.40		2.9460E-03
			-157.40		3.4890E-03
			-154.40		3.8091E-03
			-151.40		3.8719E-03
			-148.40		4.3819E-03
			-145.40		4.5041E-03
			-142.40		4.8748E-03
			-139.40		5.1493E-03
			-136.40		5.5969E-03
			-133.40		6.6350E-03
			-130.40		6.9904E-03
			-127.40		7.2339E-03
			-124.40		8.0630E-03
			-121.40		8.8603E-03
			-118.40		9.2623E-03
			-115.40		9.5359E-03
			-112.40		10.554E-03
			-109.40		11.619E-03
			-106.40		12.921E-03
			-103.40		14.132E-03
			-100.40		15.646E-03
			-97.40		16.852E-03
			-94.40		18.324E-03
			-91.40		20.805E-03
			-88.40		22.224E-03
			-85.40		25.346E-03
			-82.40		29.177E-03
			-79.40		34.060E-03
			-76.40		42.379E-03
			-73.40		60.207E-03
			-70.40		117.83E-03
			-67.40		293.52E-03
			-64.40		490.75E-03
			-61.40		584.72E-03
			-58.40		621.36E-03
			-55.40		635.38E-03
			-52.40		648.45E-03
			-49.40		653.96E-03
			-46.40		657.10E-03
			-43.40		660.90E-03
			-40.40		662.31E-03
			-37.40		666.10E-03
			-34.40		666.01E-03
			-31.40		667.00E-03
			-28.40		669.35E-03
			-25.40		668.25E-03
			-22.40		666.37E-03
			-19.40		669.61E-03
			-16.40		670.75E-03
			-13.40		674.29E-03
			0.00		668.95E-03
			13.40		673.26E-03
			16.40		669.60E-03
			19.40		666.62E-03
			22.40		663.22E-03
			25.40		662.84E-03
			28.40		662.20E-03
			31.40		660.40E-03
			34.40		657.54E-03
			37.40		657.41E-03
			40.40		655.81E-03
			43.40		653.84E-03
			46.40		652.20E-03
			49.40		648.29E-03
			52.40		640.67E-03
			55.40		633.48E-03
			58.40		624.62E-03
			61.40		603.36E-03
			64.40		556.06E-03
			67.40		424.41E-03
			70.40		213.58E-03
			73.40		87.080E-03
			76.40		50.927E-03
			79.40		37.963E-03
			82.40		32.641E-03
			85.40		28.216E-03
			88.40		24.818E-03
			91.40		22.794E-03
			94.40		19.751E-03
			97.40		18.990E-03
			100.40		15.839E-03
			103.40		14.296E-03
			106.40		13.401E-03
			109.40		12.135E-03
			112.40		11.434E-03
			115.40		10.283E-03
			118.40		9.3748E-03
			121.40		8.6839E-03
			124.40		7.8567E-03
			127.40		7.4088E-03
			130.40		7.5563E-03
			133.40		6.6089E-03
			136.40		5.9839E-03
			139.40		6.8347E-03
			142.40		5.2530E-03
			145.40		5.4854E-03
			148.40		4.8757E-03
			151.40		3.8872E-03
			154.40		4.4178E-03
			157.40		3.8067E-03
			160.40		3.6490E-03
			163.40		4.0101E-03
			166.40		3.1148E-03
			169.40		3.0738E-03
			172.40		2.1593E-03
		END_DATA
	END_SCAN  16
END_SCAN_DATA
