BEGIN_SCAN_DATA
	FORMAT=CC-Export V1.9                  
	FILE_CREATION_DATE=07-Oct-2010 14:22:52
	LAST_MODIFIED=07-Oct-2010 14:22:52
	BEGIN_SCAN  1
		TASK_NAME=MODE_INTERVAL
		PROGRAM=BeamAdjust 1.2
		MEAS_DATE=07-Oct-2010 14:22:52
		LINAC=A4
		MODALITY=X
		INPLANE_AXIS_DIR=TARGET_GUN
		CROSSPLANE_AXIS_DIR=LEFT_RIGHT
		DEPTH_AXIS_DIR=UP_DOWN
		ENERGY=6.00
		SSD=950.00
		WEDGE=None
		FIELD_INPLANE=100.00
		FIELD_CROSSPLANE=100.00
		FIELD_TYPE=RECTANGULAR
		GANTRY=0.00
		GANTRY_UPRIGHT_POSITION=0
		GANTRY_ROTATION=CW
		COLL_ANGLE=90.00
		COLL_OFFSET_INPLANE=0.00
		COLL_OFFSET_CROSSPLANE=0.00
		SCAN_DEVICE=STARCHECK
		ELECTROMETER=2D_ARRAY_INTERFACE
		DETECTOR=STARCHECK
		SCAN_CURVETYPE=CROSSPLANE_PROFILE
		SCAN_DEPTH=0.00
		SCAN_OFFAXIS_INPLANE=-130.00
		SCAN_ANGLE=0.00
		SCAN_DIAGONAL=NOT_DIAGONAL
		MEAS_PRESET=TIME_PRESET
		MEAS_TIME=10.000
		MEAS_UNIT=GY
		PRESSURE=1013.25
		TEMPERATURE=20.00
		NORM_TEMPERATURE=20.00
		CORRECTION_FACTOR=1.0000
		CORRECTIONS=AIR_DENSITY_CORR;
		BEGIN_DATA
			-130.00		2.3500E-03
			-80.00		4.0446E-03
			-40.00		6.5099E-03
			40.00		6.5845E-03
			80.00		3.5983E-03
			130.00		1.8252E-03
		END_DATA
	END_SCAN  1
	BEGIN_SCAN  2
		TASK_NAME=MODE_INTERVAL
		PROGRAM=BeamAdjust 1.2
		MEAS_DATE=07-Oct-2010 14:22:52
		LINAC=A4
		MODALITY=X
		INPLANE_AXIS_DIR=TARGET_GUN
		CROSSPLANE_AXIS_DIR=LEFT_RIGHT
		DEPTH_AXIS_DIR=UP_DOWN
		ENERGY=6.00
		SSD=950.00
		WEDGE=None
		FIELD_INPLANE=100.00
		FIELD_CROSSPLANE=100.00
		FIELD_TYPE=RECTANGULAR
		GANTRY=0.00
		GANTRY_UPRIGHT_POSITION=0
		GANTRY_ROTATION=CW
		COLL_ANGLE=90.00
		COLL_OFFSET_INPLANE=0.00
		COLL_OFFSET_CROSSPLANE=0.00
		SCAN_DEVICE=STARCHECK
		ELECTROMETER=2D_ARRAY_INTERFACE
		DETECTOR=STARCHECK
		SCAN_CURVETYPE=CROSSPLANE_PROFILE
		SCAN_DEPTH=0.00
		SCAN_OFFAXIS_INPLANE=-100.00
		SCAN_ANGLE=0.00
		SCAN_DIAGONAL=NOT_DIAGONAL
		MEAS_PRESET=TIME_PRESET
		MEAS_TIME=10.000
		MEAS_UNIT=GY
		PRESSURE=1013.25
		TEMPERATURE=20.00
		NORM_TEMPERATURE=20.00
		CORRECTION_FACTOR=1.0000
		CORRECTIONS=AIR_DENSITY_CORR;
		BEGIN_DATA
			-60.00		9.9516E-03
			-30.00		13.743E-03
			30.00		14.275E-03
			60.00		9.3310E-03
		END_DATA
	END_SCAN  2
	BEGIN_SCAN  3
		TASK_NAME=MODE_INTERVAL
		PROGRAM=BeamAdjust 1.2
		MEAS_DATE=07-Oct-2010 14:22:52
		LINAC=A4
		MODALITY=X
		INPLANE_AXIS_DIR=TARGET_GUN
		CROSSPLANE_AXIS_DIR=LEFT_RIGHT
		DEPTH_AXIS_DIR=UP_DOWN
		ENERGY=6.00
		SSD=950.00
		WEDGE=None
		FIELD_INPLANE=100.00
		FIELD_CROSSPLANE=100.00
		FIELD_TYPE=RECTANGULAR
		GANTRY=0.00
		GANTRY_UPRIGHT_POSITION=0
		GANTRY_ROTATION=CW
		COLL_ANGLE=90.00
		COLL_OFFSET_INPLANE=0.00
		COLL_OFFSET_CROSSPLANE=0.00
		SCAN_DEVICE=STARCHECK
		ELECTROMETER=2D_ARRAY_INTERFACE
		DETECTOR=STARCHECK
		SCAN_CURVETYPE=CROSSPLANE_PROFILE
		SCAN_DEPTH=0.00
		SCAN_OFFAXIS_INPLANE=-50.00
		SCAN_ANGLE=0.00
		SCAN_DIAGONAL=NOT_DIAGONAL
		MEAS_PRESET=TIME_PRESET
		MEAS_TIME=10.000
		MEAS_UNIT=GY
		PRESSURE=1013.25
		TEMPERATURE=20.00
		NORM_TEMPERATURE=20.00
		CORRECTION_FACTOR=1.0000
		CORRECTIONS=AIR_DENSITY_CORR;
		BEGIN_DATA
			-30.00		223.54E-03
			-15.00		192.41E-03
			15.00		212.28E-03
			30.00		220.64E-03
		END_DATA
	END_SCAN  3
	BEGIN_SCAN  4
		TASK_NAME=MODE_INTERVAL
		PROGRAM=BeamAdjust 1.2
		MEAS_DATE=07-Oct-2010 14:22:52
		LINAC=A4
		MODALITY=X
		INPLANE_AXIS_DIR=TARGET_GUN
		CROSSPLANE_AXIS_DIR=LEFT_RIGHT
		DEPTH_AXIS_DIR=UP_DOWN
		ENERGY=6.00
		SSD=950.00
		WEDGE=None
		FIELD_INPLANE=100.00
		FIELD_CROSSPLANE=100.00
		FIELD_TYPE=RECTANGULAR
		GANTRY=0.00
		GANTRY_UPRIGHT_POSITION=0
		GANTRY_ROTATION=CW
		COLL_ANGLE=90.00
		COLL_OFFSET_INPLANE=0.00
		COLL_OFFSET_CROSSPLANE=0.00
		SCAN_DEVICE=STARCHECK
		ELECTROMETER=2D_ARRAY_INTERFACE
		DETECTOR=STARCHECK
		SCAN_CURVETYPE=CROSSPLANE_PROFILE
		SCAN_DEPTH=0.00
		SCAN_OFFAXIS_INPLANE=0.00
		SCAN_ANGLE=0.00
		SCAN_DIAGONAL=NOT_DIAGONAL
		MEAS_PRESET=TIME_PRESET
		MEAS_TIME=10.000
		MEAS_UNIT=GY
		PRESSURE=1013.25
		TEMPERATURE=20.00
		NORM_TEMPERATURE=20.00
		CORRECTION_FACTOR=1.0000
		CORRECTIONS=AIR_DENSITY_CORR;
		BEGIN_DATA
			-126.00		6.9274E-03
			-123.00		7.1247E-03
			-120.00		8.0324E-03
			-117.00		8.2591E-03
			-114.00		8.7154E-03
			-111.00		9.3496E-03
			-108.00		10.024E-03
			-105.00		11.034E-03
			-102.00		11.646E-03
			-99.00		12.605E-03
			-96.00		14.164E-03
			-93.00		15.092E-03
			-90.00		16.273E-03
			-87.00		17.954E-03
			-84.00		20.569E-03
			-81.00		21.680E-03
			-78.00		23.863E-03
			-75.00		26.802E-03
			-72.00		29.612E-03
			-69.00		34.024E-03
			-66.00		39.056E-03
			-63.00		45.060E-03
			-60.00		54.798E-03
			-57.00		71.962E-03
			-54.00		113.91E-03
			-51.00		289.36E-03
			-48.00		554.21E-03
			-45.00		616.94E-03
			-42.00		636.78E-03
			-39.00		649.12E-03
			-36.00		655.28E-03
			-33.00		655.62E-03
			-30.00		657.62E-03
			-27.00		660.64E-03
			-24.00		662.45E-03
			-21.00		662.60E-03
			-18.00		668.67E-03
			-15.00		668.89E-03
			-12.00		668.26E-03
			-9.00		670.42E-03
			-6.00		669.26E-03
			0.00		668.60E-03
			6.00		672.14E-03
			9.00		671.18E-03
			12.00		668.96E-03
			15.00		668.06E-03
			18.00		666.92E-03
			21.00		665.06E-03
			24.00		662.08E-03
			27.00		665.61E-03
			30.00		663.85E-03
			33.00		661.64E-03
			36.00		658.14E-03
			39.00		652.05E-03
			42.00		640.46E-03
			45.00		615.53E-03
			48.00		528.24E-03
			51.00		234.28E-03
			54.00		102.35E-03
			57.00		68.485E-03
			60.00		52.997E-03
			63.00		44.286E-03
			66.00		37.758E-03
			69.00		32.993E-03
			72.00		29.589E-03
			75.00		26.625E-03
			78.00		23.662E-03
			81.00		21.645E-03
			84.00		19.676E-03
			87.00		17.401E-03
			90.00		17.431E-03
			93.00		15.164E-03
			96.00		13.139E-03
			99.00		12.776E-03
			102.00		11.742E-03
			105.00		10.589E-03
			108.00		10.493E-03
			111.00		8.9738E-03
			114.00		8.7380E-03
			117.00		7.9548E-03
			120.00		6.8718E-03
			123.00		7.1709E-03
			126.00		6.8060E-03
		END_DATA
	END_SCAN  4
	BEGIN_SCAN  5
		TASK_NAME=MODE_INTERVAL
		PROGRAM=BeamAdjust 1.2
		MEAS_DATE=07-Oct-2010 14:22:52
		LINAC=A4
		MODALITY=X
		INPLANE_AXIS_DIR=TARGET_GUN
		CROSSPLANE_AXIS_DIR=LEFT_RIGHT
		DEPTH_AXIS_DIR=UP_DOWN
		ENERGY=6.00
		SSD=950.00
		WEDGE=None
		FIELD_INPLANE=100.00
		FIELD_CROSSPLANE=100.00
		FIELD_TYPE=RECTANGULAR
		GANTRY=0.00
		GANTRY_UPRIGHT_POSITION=0
		GANTRY_ROTATION=CW
		COLL_ANGLE=90.00
		COLL_OFFSET_INPLANE=0.00
		COLL_OFFSET_CROSSPLANE=0.00
		SCAN_DEVICE=STARCHECK
		ELECTROMETER=2D_ARRAY_INTERFACE
		DETECTOR=STARCHECK
		SCAN_CURVETYPE=CROSSPLANE_PROFILE
		SCAN_DEPTH=0.00
		SCAN_OFFAXIS_INPLANE=50.00
		SCAN_ANGLE=0.00
		SCAN_DIAGONAL=NOT_DIAGONAL
		MEAS_PRESET=TIME_PRESET
		MEAS_TIME=10.000
		MEAS_UNIT=GY
		PRESSURE=1013.25
		TEMPERATURE=20.00
		NORM_TEMPERATURE=20.00
		CORRECTION_FACTOR=1.0000
		CORRECTIONS=AIR_DENSITY_CORR;
		BEGIN_DATA
			-30.00		440.10E-03
			-15.00		455.59E-03
			15.00		426.22E-03
			30.00		430.75E-03
		END_DATA
	END_SCAN  5
	BEGIN_SCAN  6
		TASK_NAME=MODE_INTERVAL
		PROGRAM=BeamAdjust 1.2
		MEAS_DATE=07-Oct-2010 14:22:52
		LINAC=A4
		MODALITY=X
		INPLANE_AXIS_DIR=TARGET_GUN
		CROSSPLANE_AXIS_DIR=LEFT_RIGHT
		DEPTH_AXIS_DIR=UP_DOWN
		ENERGY=6.00
		SSD=950.00
		WEDGE=None
		FIELD_INPLANE=100.00
		FIELD_CROSSPLANE=100.00
		FIELD_TYPE=RECTANGULAR
		GANTRY=0.00
		GANTRY_UPRIGHT_POSITION=0
		GANTRY_ROTATION=CW
		COLL_ANGLE=90.00
		COLL_OFFSET_INPLANE=0.00
		COLL_OFFSET_CROSSPLANE=0.00
		SCAN_DEVICE=STARCHECK
		ELECTROMETER=2D_ARRAY_INTERFACE
		DETECTOR=STARCHECK
		SCAN_CURVETYPE=CROSSPLANE_PROFILE
		SCAN_DEPTH=0.00
		SCAN_OFFAXIS_INPLANE=100.00
		SCAN_ANGLE=0.00
		SCAN_DIAGONAL=NOT_DIAGONAL
		MEAS_PRESET=TIME_PRESET
		MEAS_TIME=10.000
		MEAS_UNIT=GY
		PRESSURE=1013.25
		TEMPERATURE=20.00
		NORM_TEMPERATURE=20.00
		CORRECTION_FACTOR=1.0000
		CORRECTIONS=AIR_DENSITY_CORR;
		BEGIN_DATA
			-60.00		10.330E-03
			-30.00		15.749E-03
			30.00		15.635E-03
			60.00		9.6884E-03
		END_DATA
	END_SCAN  6
	BEGIN_SCAN  7
		TASK_NAME=MODE_INTERVAL
		PROGRAM=BeamAdjust 1.2
		MEAS_DATE=07-Oct-2010 14:22:52
		LINAC=A4
		MODALITY=X
		INPLANE_AXIS_DIR=TARGET_GUN
		CROSSPLANE_AXIS_DIR=LEFT_RIGHT
		DEPTH_AXIS_DIR=UP_DOWN
		ENERGY=6.00
		SSD=950.00
		WEDGE=None
		FIELD_INPLANE=100.00
		FIELD_CROSSPLANE=100.00
		FIELD_TYPE=RECTANGULAR
		GANTRY=0.00
		GANTRY_UPRIGHT_POSITION=0
		GANTRY_ROTATION=CW
		COLL_ANGLE=90.00
		COLL_OFFSET_INPLANE=0.00
		COLL_OFFSET_CROSSPLANE=0.00
		SCAN_DEVICE=STARCHECK
		ELECTROMETER=2D_ARRAY_INTERFACE
		DETECTOR=STARCHECK
		SCAN_CURVETYPE=CROSSPLANE_PROFILE
		SCAN_DEPTH=0.00
		SCAN_OFFAXIS_INPLANE=130.00
		SCAN_ANGLE=0.00
		SCAN_DIAGONAL=NOT_DIAGONAL
		MEAS_PRESET=TIME_PRESET
		MEAS_TIME=10.000
		MEAS_UNIT=GY
		PRESSURE=1013.25
		TEMPERATURE=20.00
		NORM_TEMPERATURE=20.00
		CORRECTION_FACTOR=1.0000
		CORRECTIONS=AIR_DENSITY_CORR;
		BEGIN_DATA
			-130.00		1.8462E-03
			-80.00		3.8400E-03
			-40.00		7.6219E-03
			40.00		7.5526E-03
			80.00		4.4731E-03
			130.00		2.3802E-03
		END_DATA
	END_SCAN  7
	BEGIN_SCAN  8
		TASK_NAME=MODE_INTERVAL
		PROGRAM=BeamAdjust 1.2
		MEAS_DATE=07-Oct-2010 14:22:52
		LINAC=A4
		MODALITY=X
		INPLANE_AXIS_DIR=TARGET_GUN
		CROSSPLANE_AXIS_DIR=LEFT_RIGHT
		DEPTH_AXIS_DIR=UP_DOWN
		ENERGY=6.00
		SSD=950.00
		WEDGE=None
		FIELD_INPLANE=100.00
		FIELD_CROSSPLANE=100.00
		FIELD_TYPE=RECTANGULAR
		GANTRY=0.00
		GANTRY_UPRIGHT_POSITION=0
		GANTRY_ROTATION=CW
		COLL_ANGLE=90.00
		COLL_OFFSET_INPLANE=0.00
		COLL_OFFSET_CROSSPLANE=0.00
		SCAN_DEVICE=STARCHECK
		ELECTROMETER=2D_ARRAY_INTERFACE
		DETECTOR=STARCHECK
		SCAN_CURVETYPE=INPLANE_PROFILE
		SCAN_DEPTH=0.00
		SCAN_OFFAXIS_CROSSPLANE=-130.00
		SCAN_ANGLE=0.00
		SCAN_DIAGONAL=NOT_DIAGONAL
		MEAS_PRESET=TIME_PRESET
		MEAS_TIME=10.000
		MEAS_UNIT=GY
		PRESSURE=1013.25
		TEMPERATURE=20.00
		NORM_TEMPERATURE=20.00
		CORRECTION_FACTOR=1.0000
		CORRECTIONS=AIR_DENSITY_CORR;
		BEGIN_DATA
			-130.00		2.3500E-03
			-125.00		2.5145E-03
			-120.00		2.8829E-03
			-115.00		3.3288E-03
			-110.00		3.1273E-03
			-105.00		3.3656E-03
			-100.00		4.1432E-03
			-95.00		4.1732E-03
			-90.00		4.4719E-03
			-85.00		5.1525E-03
			-80.00		3.8306E-03
			-75.00		4.8422E-03
			-70.00		4.9949E-03
			-65.00		4.5597E-03
			-60.00		5.2014E-03
			-55.00		5.9214E-03
			-50.00		4.2182E-03
			-45.00		4.5141E-03
			-40.00		4.8532E-03
			-35.00		5.3006E-03
			-30.00		5.0020E-03
			-25.00		5.1935E-03
			-20.00		5.0484E-03
			-15.00		5.3058E-03
			-10.00		5.2360E-03
			-5.00		5.9207E-03
			0.00		5.9436E-03
			5.00		6.3790E-03
			10.00		5.8833E-03
			15.00		5.5552E-03
			20.00		5.5545E-03
			25.00		5.2354E-03
			30.00		5.7767E-03
			35.00		4.9935E-03
			40.00		5.1175E-03
			45.00		4.4869E-03
			50.00		4.7186E-03
			55.00		4.8748E-03
			60.00		4.3178E-03
			65.00		3.8891E-03
			70.00		3.8364E-03
			75.00		4.1962E-03
			80.00		3.2373E-03
			85.00		3.6351E-03
			90.00		3.3302E-03
			95.00		3.1186E-03
			100.00		3.1027E-03
			105.00		2.6236E-03
			110.00		2.4590E-03
			115.00		2.1524E-03
			120.00		2.5215E-03
			125.00		2.6897E-03
			130.00		1.8462E-03
		END_DATA
	END_SCAN  8
	BEGIN_SCAN  9
		TASK_NAME=MODE_INTERVAL
		PROGRAM=BeamAdjust 1.2
		MEAS_DATE=07-Oct-2010 14:22:52
		LINAC=A4
		MODALITY=X
		INPLANE_AXIS_DIR=TARGET_GUN
		CROSSPLANE_AXIS_DIR=LEFT_RIGHT
		DEPTH_AXIS_DIR=UP_DOWN
		ENERGY=6.00
		SSD=950.00
		WEDGE=None
		FIELD_INPLANE=100.00
		FIELD_CROSSPLANE=100.00
		FIELD_TYPE=RECTANGULAR
		GANTRY=0.00
		GANTRY_UPRIGHT_POSITION=0
		GANTRY_ROTATION=CW
		COLL_ANGLE=90.00
		COLL_OFFSET_INPLANE=0.00
		COLL_OFFSET_CROSSPLANE=0.00
		SCAN_DEVICE=STARCHECK
		ELECTROMETER=2D_ARRAY_INTERFACE
		DETECTOR=STARCHECK
		SCAN_CURVETYPE=INPLANE_PROFILE
		SCAN_DEPTH=0.00
		SCAN_OFFAXIS_CROSSPLANE=-100.00
		SCAN_ANGLE=0.00
		SCAN_DIAGONAL=NOT_DIAGONAL
		MEAS_PRESET=TIME_PRESET
		MEAS_TIME=10.000
		MEAS_UNIT=GY
		PRESSURE=1013.25
		TEMPERATURE=20.00
		NORM_TEMPERATURE=20.00
		CORRECTION_FACTOR=1.0000
		CORRECTIONS=AIR_DENSITY_CORR;
		BEGIN_DATA
			-60.00		7.8842E-03
			-30.00		10.624E-03
			30.00		10.019E-03
			60.00		7.8426E-03
		END_DATA
	END_SCAN  9
	BEGIN_SCAN  10
		TASK_NAME=MODE_INTERVAL
		PROGRAM=BeamAdjust 1.2
		MEAS_DATE=07-Oct-2010 14:22:52
		LINAC=A4
		MODALITY=X
		INPLANE_AXIS_DIR=TARGET_GUN
		CROSSPLANE_AXIS_DIR=LEFT_RIGHT
		DEPTH_AXIS_DIR=UP_DOWN
		ENERGY=6.00
		SSD=950.00
		WEDGE=None
		FIELD_INPLANE=100.00
		FIELD_CROSSPLANE=100.00
		FIELD_TYPE=RECTANGULAR
		GANTRY=0.00
		GANTRY_UPRIGHT_POSITION=0
		GANTRY_ROTATION=CW
		COLL_ANGLE=90.00
		COLL_OFFSET_INPLANE=0.00
		COLL_OFFSET_CROSSPLANE=0.00
		SCAN_DEVICE=STARCHECK
		ELECTROMETER=2D_ARRAY_INTERFACE
		DETECTOR=STARCHECK
		SCAN_CURVETYPE=INPLANE_PROFILE
		SCAN_DEPTH=0.00
		SCAN_OFFAXIS_CROSSPLANE=-50.00
		SCAN_ANGLE=0.00
		SCAN_DIAGONAL=NOT_DIAGONAL
		MEAS_PRESET=TIME_PRESET
		MEAS_TIME=10.000
		MEAS_UNIT=GY
		PRESSURE=1013.25
		TEMPERATURE=20.00
		NORM_TEMPERATURE=20.00
		CORRECTION_FACTOR=1.0000
		CORRECTIONS=AIR_DENSITY_CORR;
		BEGIN_DATA
			-30.00		395.03E-03
			-15.00		392.35E-03
			15.00		382.07E-03
			30.00		372.02E-03
		END_DATA
	END_SCAN  10
	BEGIN_SCAN  11
		TASK_NAME=MODE_INTERVAL
		PROGRAM=BeamAdjust 1.2
		MEAS_DATE=07-Oct-2010 14:22:52
		LINAC=A4
		MODALITY=X
		INPLANE_AXIS_DIR=TARGET_GUN
		CROSSPLANE_AXIS_DIR=LEFT_RIGHT
		DEPTH_AXIS_DIR=UP_DOWN
		ENERGY=6.00
		SSD=950.00
		WEDGE=None
		FIELD_INPLANE=100.00
		FIELD_CROSSPLANE=100.00
		FIELD_TYPE=RECTANGULAR
		GANTRY=0.00
		GANTRY_UPRIGHT_POSITION=0
		GANTRY_ROTATION=CW
		COLL_ANGLE=90.00
		COLL_OFFSET_INPLANE=0.00
		COLL_OFFSET_CROSSPLANE=0.00
		SCAN_DEVICE=STARCHECK
		ELECTROMETER=2D_ARRAY_INTERFACE
		DETECTOR=STARCHECK
		SCAN_CURVETYPE=INPLANE_PROFILE
		SCAN_DEPTH=0.00
		SCAN_OFFAXIS_CROSSPLANE=0.00
		SCAN_ANGLE=0.00
		SCAN_DIAGONAL=NOT_DIAGONAL
		MEAS_PRESET=TIME_PRESET
		MEAS_TIME=10.000
		MEAS_UNIT=GY
		PRESSURE=1013.25
		TEMPERATURE=20.00
		NORM_TEMPERATURE=20.00
		CORRECTION_FACTOR=1.0000
		CORRECTIONS=AIR_DENSITY_CORR;
		BEGIN_DATA
			-126.00		8.8377E-03
			-123.00		8.6575E-03
			-120.00		9.6932E-03
			-117.00		10.862E-03
			-114.00		11.143E-03
			-111.00		12.242E-03
			-108.00		12.701E-03
			-105.00		14.228E-03
			-102.00		15.375E-03
			-99.00		15.657E-03
			-96.00		17.508E-03
			-93.00		19.283E-03
			-90.00		20.550E-03
			-87.00		22.404E-03
			-84.00		24.734E-03
			-81.00		26.399E-03
			-78.00		28.839E-03
			-75.00		30.975E-03
			-72.00		34.079E-03
			-69.00		37.310E-03
			-66.00		41.873E-03
			-63.00		47.410E-03
			-60.00		54.703E-03
			-57.00		66.974E-03
			-54.00		91.468E-03
			-51.00		162.38E-03
			-48.00		388.38E-03
			-45.00		588.70E-03
			-42.00		632.24E-03
			-39.00		647.18E-03
			-36.00		655.47E-03
			-33.00		659.60E-03
			-30.00		664.74E-03
			-27.00		666.20E-03
			-24.00		665.91E-03
			-21.00		664.91E-03
			-18.00		670.60E-03
			-15.00		669.19E-03
			-12.00		671.69E-03
			-9.00		672.45E-03
			-6.00		669.85E-03
			0.00		668.60E-03
			6.00		671.79E-03
			9.00		671.89E-03
			12.00		671.85E-03
			15.00		670.50E-03
			18.00		665.15E-03
			21.00		664.47E-03
			24.00		661.55E-03
			27.00		662.88E-03
			30.00		659.37E-03
			33.00		658.17E-03
			36.00		656.28E-03
			39.00		647.39E-03
			42.00		640.35E-03
			45.00		625.03E-03
			48.00		571.21E-03
			51.00		354.38E-03
			54.00		150.67E-03
			57.00		87.275E-03
			60.00		64.480E-03
			63.00		53.295E-03
			66.00		46.719E-03
			69.00		41.048E-03
			72.00		36.895E-03
			75.00		33.260E-03
			78.00		29.343E-03
			81.00		27.546E-03
			84.00		25.260E-03
			87.00		23.132E-03
			90.00		21.756E-03
			93.00		20.370E-03
			96.00		18.465E-03
			99.00		16.984E-03
			102.00		15.081E-03
			105.00		14.149E-03
			108.00		13.801E-03
			111.00		12.382E-03
			114.00		11.704E-03
			117.00		10.787E-03
			120.00		10.181E-03
			123.00		9.2931E-03
			126.00		8.6273E-03
		END_DATA
	END_SCAN  11
	BEGIN_SCAN  12
		TASK_NAME=MODE_INTERVAL
		PROGRAM=BeamAdjust 1.2
		MEAS_DATE=07-Oct-2010 14:22:52
		LINAC=A4
		MODALITY=X
		INPLANE_AXIS_DIR=TARGET_GUN
		CROSSPLANE_AXIS_DIR=LEFT_RIGHT
		DEPTH_AXIS_DIR=UP_DOWN
		ENERGY=6.00
		SSD=950.00
		WEDGE=None
		FIELD_INPLANE=100.00
		FIELD_CROSSPLANE=100.00
		FIELD_TYPE=RECTANGULAR
		GANTRY=0.00
		GANTRY_UPRIGHT_POSITION=0
		GANTRY_ROTATION=CW
		COLL_ANGLE=90.00
		COLL_OFFSET_INPLANE=0.00
		COLL_OFFSET_CROSSPLANE=0.00
		SCAN_DEVICE=STARCHECK
		ELECTROMETER=2D_ARRAY_INTERFACE
		DETECTOR=STARCHECK
		SCAN_CURVETYPE=INPLANE_PROFILE
		SCAN_DEPTH=0.00
		SCAN_OFFAXIS_CROSSPLANE=50.00
		SCAN_ANGLE=0.00
		SCAN_DIAGONAL=NOT_DIAGONAL
		MEAS_PRESET=TIME_PRESET
		MEAS_TIME=10.000
		MEAS_UNIT=GY
		PRESSURE=1013.25
		TEMPERATURE=20.00
		NORM_TEMPERATURE=20.00
		CORRECTION_FACTOR=1.0000
		CORRECTIONS=AIR_DENSITY_CORR;
		BEGIN_DATA
			-30.00		327.80E-03
			-15.00		337.64E-03
			15.00		345.70E-03
			30.00		347.88E-03
		END_DATA
	END_SCAN  12
	BEGIN_SCAN  13
		TASK_NAME=MODE_INTERVAL
		PROGRAM=BeamAdjust 1.2
		MEAS_DATE=07-Oct-2010 14:22:52
		LINAC=A4
		MODALITY=X
		INPLANE_AXIS_DIR=TARGET_GUN
		CROSSPLANE_AXIS_DIR=LEFT_RIGHT
		DEPTH_AXIS_DIR=UP_DOWN
		ENERGY=6.00
		SSD=950.00
		WEDGE=None
		FIELD_INPLANE=100.00
		FIELD_CROSSPLANE=100.00
		FIELD_TYPE=RECTANGULAR
		GANTRY=0.00
		GANTRY_UPRIGHT_POSITION=0
		GANTRY_ROTATION=CW
		COLL_ANGLE=90.00
		COLL_OFFSET_INPLANE=0.00
		COLL_OFFSET_CROSSPLANE=0.00
		SCAN_DEVICE=STARCHECK
		ELECTROMETER=2D_ARRAY_INTERFACE
		DETECTOR=STARCHECK
		SCAN_CURVETYPE=INPLANE_PROFILE
		SCAN_DEPTH=0.00
		SCAN_OFFAXIS_CROSSPLANE=100.00
		SCAN_ANGLE=0.00
		SCAN_DIAGONAL=NOT_DIAGONAL
		MEAS_PRESET=TIME_PRESET
		MEAS_TIME=10.000
		MEAS_UNIT=GY
		PRESSURE=1013.25
		TEMPERATURE=20.00
		NORM_TEMPERATURE=20.00
		CORRECTION_FACTOR=1.0000
		CORRECTIONS=AIR_DENSITY_CORR;
		BEGIN_DATA
			-60.00		7.7182E-03
			-30.00		10.367E-03
			30.00		10.203E-03
			60.00		7.7231E-03
		END_DATA
	END_SCAN  13
	BEGIN_SCAN  14
		TASK_NAME=MODE_INTERVAL
		PROGRAM=BeamAdjust 1.2
		MEAS_DATE=07-Oct-2010 14:22:52
		LINAC=A4
		MODALITY=X
		INPLANE_AXIS_DIR=TARGET_GUN
		CROSSPLANE_AXIS_DIR=LEFT_RIGHT
		DEPTH_AXIS_DIR=UP_DOWN
		ENERGY=6.00
		SSD=950.00
		WEDGE=None
		FIELD_INPLANE=100.00
		FIELD_CROSSPLANE=100.00
		FIELD_TYPE=RECTANGULAR
		GANTRY=0.00
		GANTRY_UPRIGHT_POSITION=0
		GANTRY_ROTATION=CW
		COLL_ANGLE=90.00
		COLL_OFFSET_INPLANE=0.00
		COLL_OFFSET_CROSSPLANE=0.00
		SCAN_DEVICE=STARCHECK
		ELECTROMETER=2D_ARRAY_INTERFACE
		DETECTOR=STARCHECK
		SCAN_CURVETYPE=INPLANE_PROFILE
		SCAN_DEPTH=0.00
		SCAN_OFFAXIS_CROSSPLANE=130.00
		SCAN_ANGLE=0.00
		SCAN_DIAGONAL=NOT_DIAGONAL
		MEAS_PRESET=TIME_PRESET
		MEAS_TIME=10.000
		MEAS_UNIT=GY
		PRESSURE=1013.25
		TEMPERATURE=20.00
		NORM_TEMPERATURE=20.00
		CORRECTION_FACTOR=1.0000
		CORRECTIONS=AIR_DENSITY_CORR;
		BEGIN_DATA
			-130.00		1.8252E-03
			-125.00		2.5315E-03
			-120.00		2.0650E-03
			-115.00		2.6959E-03
			-110.00		2.4750E-03
			-105.00		2.6210E-03
			-100.00		3.0476E-03
			-95.00		2.7374E-03
			-90.00		2.5769E-03
			-85.00		3.7267E-03
			-80.00		3.2713E-03
			-75.00		4.0843E-03
			-70.00		3.6699E-03
			-65.00		3.9864E-03
			-60.00		4.4297E-03
			-55.00		4.2705E-03
			-50.00		4.2516E-03
			-45.00		4.4656E-03
			-40.00		4.9881E-03
			-35.00		5.0377E-03
			-30.00		5.2533E-03
			-25.00		5.0352E-03
			-20.00		5.2068E-03
			-15.00		4.9634E-03
			-10.00		4.7137E-03
			-5.00		6.2070E-03
			0.00		5.9288E-03
			5.00		5.3250E-03
			10.00		5.6869E-03
			15.00		5.1734E-03
			20.00		5.2580E-03
			25.00		5.2582E-03
			30.00		5.0742E-03
			35.00		5.4167E-03
			40.00		5.4356E-03
			45.00		5.3192E-03
			50.00		4.9077E-03
			55.00		5.1482E-03
			60.00		4.8436E-03
			65.00		4.5400E-03
			70.00		4.3866E-03
			75.00		4.3254E-03
			80.00		3.9420E-03
			85.00		4.0517E-03
			90.00		3.5638E-03
			95.00		3.4691E-03
			100.00		3.5274E-03
			105.00		2.7965E-03
			110.00		2.8497E-03
			115.00		2.8463E-03
			120.00		2.7536E-03
			125.00		2.4335E-03
			130.00		2.3802E-03
		END_DATA
	END_SCAN  14
	BEGIN_SCAN  15
		TASK_NAME=MODE_INTERVAL
		PROGRAM=BeamAdjust 1.2
		MEAS_DATE=07-Oct-2010 14:22:52
		LINAC=A4
		MODALITY=X
		INPLANE_AXIS_DIR=TARGET_GUN
		CROSSPLANE_AXIS_DIR=LEFT_RIGHT
		DEPTH_AXIS_DIR=UP_DOWN
		ENERGY=6.00
		SSD=950.00
		WEDGE=None
		FIELD_INPLANE=100.00
		FIELD_CROSSPLANE=100.00
		FIELD_TYPE=RECTANGULAR
		GANTRY=0.00
		GANTRY_UPRIGHT_POSITION=0
		GANTRY_ROTATION=CW
		COLL_ANGLE=90.00
		COLL_OFFSET_INPLANE=0.00
		COLL_OFFSET_CROSSPLANE=0.00
		SCAN_DEVICE=STARCHECK
		ELECTROMETER=2D_ARRAY_INTERFACE
		DETECTOR=STARCHECK
		SCAN_CURVETYPE=INPLANE_PROFILE
		SCAN_DEPTH=0.00
		SCAN_OFFAXIS_CROSSPLANE=0.00
		SCAN_ANGLE=0.00
		SCAN_DIAGONAL=FIRST_DIAGONAL
		MEAS_PRESET=TIME_PRESET
		MEAS_TIME=10.000
		MEAS_UNIT=GY
		PRESSURE=1013.25
		TEMPERATURE=20.00
		NORM_TEMPERATURE=20.00
		CORRECTION_FACTOR=1.0000
		CORRECTIONS=AIR_DENSITY_CORR;
		BEGIN_DATA
			-172.40		2.4524E-03
			-169.40		3.2677E-03
			-166.40		3.7857E-03
			-163.40		3.2925E-03
			-160.40		3.9236E-03
			-157.40		3.6207E-03
			-154.40		3.8586E-03
			-151.40		3.8501E-03
			-148.40		4.4669E-03
			-145.40		5.0720E-03
			-142.40		5.3362E-03
			-139.40		5.7178E-03
			-136.40		5.9574E-03
			-133.40		6.4269E-03
			-130.40		6.8690E-03
			-127.40		7.9728E-03
			-124.40		7.5221E-03
			-121.40		8.8620E-03
			-118.40		9.5685E-03
			-115.40		10.202E-03
			-112.40		10.955E-03
			-109.40		12.201E-03
			-106.40		13.251E-03
			-103.40		13.670E-03
			-100.40		15.270E-03
			-97.40		17.207E-03
			-94.40		19.126E-03
			-91.40		21.100E-03
			-88.40		23.766E-03
			-85.40		27.116E-03
			-82.40		30.154E-03
			-79.40		35.359E-03
			-76.40		43.798E-03
			-73.40		65.271E-03
			-70.40		137.78E-03
			-67.40		322.75E-03
			-64.40		497.99E-03
			-61.40		583.95E-03
			-58.40		615.61E-03
			-55.40		632.51E-03
			-52.40		641.22E-03
			-49.40		647.22E-03
			-46.40		650.93E-03
			-43.40		653.75E-03
			-40.40		656.64E-03
			-37.40		661.69E-03
			-34.40		661.44E-03
			-31.40		663.55E-03
			-28.40		662.22E-03
			-25.40		664.95E-03
			-22.40		665.07E-03
			-19.40		665.23E-03
			-16.40		668.75E-03
			-13.40		672.33E-03
			0.00		668.60E-03
			13.40		673.24E-03
			16.40		668.74E-03
			19.40		668.19E-03
			22.40		666.71E-03
			25.40		665.81E-03
			28.40		664.87E-03
			31.40		662.23E-03
			34.40		659.38E-03
			37.40		662.24E-03
			40.40		659.37E-03
			43.40		656.69E-03
			46.40		654.85E-03
			49.40		649.41E-03
			52.40		646.08E-03
			55.40		634.95E-03
			58.40		624.44E-03
			61.40		604.10E-03
			64.40		551.35E-03
			67.40		414.25E-03
			70.40		206.06E-03
			73.40		85.066E-03
			76.40		50.435E-03
			79.40		38.353E-03
			82.40		31.768E-03
			85.40		27.682E-03
			88.40		24.410E-03
			91.40		21.781E-03
			94.40		19.644E-03
			97.40		17.612E-03
			100.40		16.036E-03
			103.40		15.589E-03
			106.40		13.474E-03
			109.40		12.448E-03
			112.40		10.774E-03
			115.40		10.078E-03
			118.40		9.1369E-03
			121.40		8.6682E-03
			124.40		7.7384E-03
			127.40		7.9814E-03
			130.40		7.1710E-03
			133.40		6.3618E-03
			136.40		5.2727E-03
			139.40		4.6086E-03
			142.40		4.6321E-03
			145.40		4.9303E-03
			148.40		4.1709E-03
			151.40		3.8410E-03
			154.40		3.4038E-03
			157.40		3.5207E-03
			160.40		2.4370E-03
			163.40		2.2984E-03
			166.40		2.8826E-03
			169.40		2.2007E-03
			172.40		2.6191E-03
		END_DATA
	END_SCAN  15
	BEGIN_SCAN  16
		TASK_NAME=MODE_INTERVAL
		PROGRAM=BeamAdjust 1.2
		MEAS_DATE=07-Oct-2010 14:22:52
		LINAC=A4
		MODALITY=X
		INPLANE_AXIS_DIR=GUN_TARGET
		CROSSPLANE_AXIS_DIR=LEFT_RIGHT
		DEPTH_AXIS_DIR=UP_DOWN
		ENERGY=6.00
		SSD=950.00
		WEDGE=None
		FIELD_INPLANE=100.00
		FIELD_CROSSPLANE=100.00
		FIELD_TYPE=RECTANGULAR
		GANTRY=0.00
		GANTRY_UPRIGHT_POSITION=0
		GANTRY_ROTATION=CW
		COLL_ANGLE=90.00
		COLL_OFFSET_INPLANE=0.00
		COLL_OFFSET_CROSSPLANE=0.00
		SCAN_DEVICE=STARCHECK
		ELECTROMETER=2D_ARRAY_INTERFACE
		DETECTOR=STARCHECK
		SCAN_CURVETYPE=INPLANE_PROFILE
		SCAN_DEPTH=0.00
		SCAN_OFFAXIS_CROSSPLANE=0.00
		SCAN_ANGLE=0.00
		SCAN_DIAGONAL=SECOND_DIAGONAL
		MEAS_PRESET=TIME_PRESET
		MEAS_TIME=10.000
		MEAS_UNIT=GY
		PRESSURE=1013.25
		TEMPERATURE=20.00
		NORM_TEMPERATURE=20.00
		CORRECTION_FACTOR=1.0000
		CORRECTIONS=AIR_DENSITY_CORR;
		BEGIN_DATA
			-172.40		2.5262E-03
			-169.40		2.6798E-03
			-166.40		2.5419E-03
			-163.40		2.8531E-03
			-160.40		3.1080E-03
			-157.40		3.3717E-03
			-154.40		3.7691E-03
			-151.40		3.8438E-03
			-148.40		4.1380E-03
			-145.40		4.4878E-03
			-142.40		5.1423E-03
			-139.40		4.9520E-03
			-136.40		6.3662E-03
			-133.40		6.2458E-03
			-130.40		6.4983E-03
			-127.40		7.8269E-03
			-124.40		7.7557E-03
			-121.40		8.4215E-03
			-118.40		9.5111E-03
			-115.40		9.4454E-03
			-112.40		10.490E-03
			-109.40		11.653E-03
			-106.40		12.704E-03
			-103.40		14.049E-03
			-100.40		15.184E-03
			-97.40		16.815E-03
			-94.40		18.690E-03
			-91.40		20.199E-03
			-88.40		22.388E-03
			-85.40		24.918E-03
			-82.40		28.867E-03
			-79.40		33.724E-03
			-76.40		41.585E-03
			-73.40		58.580E-03
			-70.40		111.31E-03
			-67.40		278.02E-03
			-64.40		477.80E-03
			-61.40		579.84E-03
			-58.40		618.56E-03
			-55.40		634.03E-03
			-52.40		647.61E-03
			-49.40		652.56E-03
			-46.40		656.31E-03
			-43.40		660.04E-03
			-40.40		661.44E-03
			-37.40		665.57E-03
			-34.40		664.75E-03
			-31.40		666.06E-03
			-28.40		668.88E-03
			-25.40		667.37E-03
			-22.40		666.03E-03
			-19.40		668.94E-03
			-16.40		670.46E-03
			-13.40		673.59E-03
			0.00		668.60E-03
			13.40		672.31E-03
			16.40		669.65E-03
			19.40		665.49E-03
			22.40		662.84E-03
			25.40		662.65E-03
			28.40		661.29E-03
			31.40		660.21E-03
			34.40		657.25E-03
			37.40		656.90E-03
			40.40		655.59E-03
			43.40		653.43E-03
			46.40		652.03E-03
			49.40		647.96E-03
			52.40		641.01E-03
			55.40		632.94E-03
			58.40		624.74E-03
			61.40		604.69E-03
			64.40		559.12E-03
			67.40		434.23E-03
			70.40		224.73E-03
			73.40		90.659E-03
			76.40		51.816E-03
			79.40		38.578E-03
			82.40		32.935E-03
			85.40		28.435E-03
			88.40		24.763E-03
			91.40		22.629E-03
			94.40		20.524E-03
			97.40		18.178E-03
			100.40		16.176E-03
			103.40		14.290E-03
			106.40		13.861E-03
			109.40		12.192E-03
			112.40		11.306E-03
			115.40		10.416E-03
			118.40		9.6204E-03
			121.40		8.4307E-03
			124.40		7.8492E-03
			127.40		7.4911E-03
			130.40		7.2875E-03
			133.40		6.4283E-03
			136.40		6.4795E-03
			139.40		6.0898E-03
			142.40		5.4443E-03
			145.40		5.3998E-03
			148.40		4.8260E-03
			151.40		4.1825E-03
			154.40		4.1791E-03
			157.40		3.8728E-03
			160.40		3.8205E-03
			163.40		3.5535E-03
			166.40		3.7789E-03
			169.40		2.8826E-03
			172.40		2.5607E-03
		END_DATA
	END_SCAN  16
END_SCAN_DATA
