BEGIN_SCAN_DATA
	FORMAT=CC-Export V1.9                  
	FILE_CREATION_DATE=07-Oct-2010 14:23:21
	LAST_MODIFIED=07-Oct-2010 14:23:21
	BEGIN_SCAN  1
		TASK_NAME=MODE_INTERVAL
		PROGRAM=BeamAdjust 1.2
		MEAS_DATE=07-Oct-2010 14:23:21
		LINAC=A4
		MODALITY=X
		INPLANE_AXIS_DIR=TARGET_GUN
		CROSSPLANE_AXIS_DIR=LEFT_RIGHT
		DEPTH_AXIS_DIR=UP_DOWN
		ENERGY=6.00
		SSD=950.00
		WEDGE=None
		FIELD_INPLANE=100.00
		FIELD_CROSSPLANE=100.00
		FIELD_TYPE=RECTANGULAR
		GANTRY=0.00
		GANTRY_UPRIGHT_POSITION=0
		GANTRY_ROTATION=CW
		COLL_ANGLE=90.00
		COLL_OFFSET_INPLANE=0.00
		COLL_OFFSET_CROSSPLANE=0.00
		SCAN_DEVICE=STARCHECK
		ELECTROMETER=2D_ARRAY_INTERFACE
		DETECTOR=STARCHECK
		SCAN_CURVETYPE=CROSSPLANE_PROFILE
		SCAN_DEPTH=0.00
		SCAN_OFFAXIS_INPLANE=-130.00
		SCAN_ANGLE=0.00
		SCAN_DIAGONAL=NOT_DIAGONAL
		MEAS_PRESET=TIME_PRESET
		MEAS_TIME=10.000
		MEAS_UNIT=GY
		PRESSURE=1013.25
		TEMPERATURE=20.00
		NORM_TEMPERATURE=20.00
		CORRECTION_FACTOR=1.0000
		CORRECTIONS=AIR_DENSITY_CORR;
		BEGIN_DATA
			-130.00		2.4629E-03
			-80.00		3.6532E-03
			-40.00		6.9146E-03
			40.00		6.6818E-03
			80.00		3.6848E-03
			130.00		1.8058E-03
		END_DATA
	END_SCAN  1
	BEGIN_SCAN  2
		TASK_NAME=MODE_INTERVAL
		PROGRAM=BeamAdjust 1.2
		MEAS_DATE=07-Oct-2010 14:23:21
		LINAC=A4
		MODALITY=X
		INPLANE_AXIS_DIR=TARGET_GUN
		CROSSPLANE_AXIS_DIR=LEFT_RIGHT
		DEPTH_AXIS_DIR=UP_DOWN
		ENERGY=6.00
		SSD=950.00
		WEDGE=None
		FIELD_INPLANE=100.00
		FIELD_CROSSPLANE=100.00
		FIELD_TYPE=RECTANGULAR
		GANTRY=0.00
		GANTRY_UPRIGHT_POSITION=0
		GANTRY_ROTATION=CW
		COLL_ANGLE=90.00
		COLL_OFFSET_INPLANE=0.00
		COLL_OFFSET_CROSSPLANE=0.00
		SCAN_DEVICE=STARCHECK
		ELECTROMETER=2D_ARRAY_INTERFACE
		DETECTOR=STARCHECK
		SCAN_CURVETYPE=CROSSPLANE_PROFILE
		SCAN_DEPTH=0.00
		SCAN_OFFAXIS_INPLANE=-100.00
		SCAN_ANGLE=0.00
		SCAN_DIAGONAL=NOT_DIAGONAL
		MEAS_PRESET=TIME_PRESET
		MEAS_TIME=10.000
		MEAS_UNIT=GY
		PRESSURE=1013.25
		TEMPERATURE=20.00
		NORM_TEMPERATURE=20.00
		CORRECTION_FACTOR=1.0000
		CORRECTIONS=AIR_DENSITY_CORR;
		BEGIN_DATA
			-60.00		9.9099E-03
			-30.00		13.410E-03
			30.00		14.265E-03
			60.00		9.5623E-03
		END_DATA
	END_SCAN  2
	BEGIN_SCAN  3
		TASK_NAME=MODE_INTERVAL
		PROGRAM=BeamAdjust 1.2
		MEAS_DATE=07-Oct-2010 14:23:21
		LINAC=A4
		MODALITY=X
		INPLANE_AXIS_DIR=TARGET_GUN
		CROSSPLANE_AXIS_DIR=LEFT_RIGHT
		DEPTH_AXIS_DIR=UP_DOWN
		ENERGY=6.00
		SSD=950.00
		WEDGE=None
		FIELD_INPLANE=100.00
		FIELD_CROSSPLANE=100.00
		FIELD_TYPE=RECTANGULAR
		GANTRY=0.00
		GANTRY_UPRIGHT_POSITION=0
		GANTRY_ROTATION=CW
		COLL_ANGLE=90.00
		COLL_OFFSET_INPLANE=0.00
		COLL_OFFSET_CROSSPLANE=0.00
		SCAN_DEVICE=STARCHECK
		ELECTROMETER=2D_ARRAY_INTERFACE
		DETECTOR=STARCHECK
		SCAN_CURVETYPE=CROSSPLANE_PROFILE
		SCAN_DEPTH=0.00
		SCAN_OFFAXIS_INPLANE=-50.00
		SCAN_ANGLE=0.00
		SCAN_DIAGONAL=NOT_DIAGONAL
		MEAS_PRESET=TIME_PRESET
		MEAS_TIME=10.000
		MEAS_UNIT=GY
		PRESSURE=1013.25
		TEMPERATURE=20.00
		NORM_TEMPERATURE=20.00
		CORRECTION_FACTOR=1.0000
		CORRECTIONS=AIR_DENSITY_CORR;
		BEGIN_DATA
			-30.00		204.20E-03
			-15.00		176.56E-03
			15.00		193.75E-03
			30.00		201.74E-03
		END_DATA
	END_SCAN  3
	BEGIN_SCAN  4
		TASK_NAME=MODE_INTERVAL
		PROGRAM=BeamAdjust 1.2
		MEAS_DATE=07-Oct-2010 14:23:21
		LINAC=A4
		MODALITY=X
		INPLANE_AXIS_DIR=TARGET_GUN
		CROSSPLANE_AXIS_DIR=LEFT_RIGHT
		DEPTH_AXIS_DIR=UP_DOWN
		ENERGY=6.00
		SSD=950.00
		WEDGE=None
		FIELD_INPLANE=100.00
		FIELD_CROSSPLANE=100.00
		FIELD_TYPE=RECTANGULAR
		GANTRY=0.00
		GANTRY_UPRIGHT_POSITION=0
		GANTRY_ROTATION=CW
		COLL_ANGLE=90.00
		COLL_OFFSET_INPLANE=0.00
		COLL_OFFSET_CROSSPLANE=0.00
		SCAN_DEVICE=STARCHECK
		ELECTROMETER=2D_ARRAY_INTERFACE
		DETECTOR=STARCHECK
		SCAN_CURVETYPE=CROSSPLANE_PROFILE
		SCAN_DEPTH=0.00
		SCAN_OFFAXIS_INPLANE=0.00
		SCAN_ANGLE=0.00
		SCAN_DIAGONAL=NOT_DIAGONAL
		MEAS_PRESET=TIME_PRESET
		MEAS_TIME=10.000
		MEAS_UNIT=GY
		PRESSURE=1013.25
		TEMPERATURE=20.00
		NORM_TEMPERATURE=20.00
		CORRECTION_FACTOR=1.0000
		CORRECTIONS=AIR_DENSITY_CORR;
		BEGIN_DATA
			-126.00		6.6066E-03
			-123.00		7.4174E-03
			-120.00		7.7128E-03
			-117.00		8.5452E-03
			-114.00		8.5895E-03
			-111.00		9.3481E-03
			-108.00		10.121E-03
			-105.00		10.993E-03
			-102.00		11.414E-03
			-99.00		13.124E-03
			-96.00		13.637E-03
			-93.00		15.172E-03
			-90.00		16.407E-03
			-87.00		17.764E-03
			-84.00		20.605E-03
			-81.00		21.679E-03
			-78.00		24.100E-03
			-75.00		26.686E-03
			-72.00		29.734E-03
			-69.00		34.075E-03
			-66.00		38.912E-03
			-63.00		45.250E-03
			-60.00		54.890E-03
			-57.00		71.953E-03
			-54.00		114.19E-03
			-51.00		288.83E-03
			-48.00		554.85E-03
			-45.00		617.33E-03
			-42.00		637.19E-03
			-39.00		649.68E-03
			-36.00		655.40E-03
			-33.00		656.02E-03
			-30.00		657.80E-03
			-27.00		660.57E-03
			-24.00		663.14E-03
			-21.00		663.40E-03
			-18.00		668.54E-03
			-15.00		669.81E-03
			-12.00		668.52E-03
			-9.00		670.98E-03
			-6.00		669.63E-03
			0.00		668.73E-03
			6.00		672.09E-03
			9.00		671.87E-03
			12.00		669.43E-03
			15.00		668.09E-03
			18.00		667.96E-03
			21.00		665.53E-03
			24.00		662.15E-03
			27.00		666.39E-03
			30.00		664.33E-03
			33.00		662.41E-03
			36.00		658.51E-03
			39.00		652.61E-03
			42.00		641.09E-03
			45.00		616.23E-03
			48.00		528.14E-03
			51.00		235.45E-03
			54.00		102.01E-03
			57.00		68.837E-03
			60.00		52.732E-03
			63.00		44.407E-03
			66.00		37.550E-03
			69.00		33.240E-03
			72.00		29.432E-03
			75.00		26.355E-03
			78.00		23.683E-03
			81.00		21.393E-03
			84.00		19.706E-03
			87.00		17.215E-03
			90.00		16.803E-03
			93.00		15.470E-03
			96.00		13.436E-03
			99.00		12.587E-03
			102.00		11.790E-03
			105.00		10.944E-03
			108.00		10.007E-03
			111.00		9.2285E-03
			114.00		8.5152E-03
			117.00		7.7670E-03
			120.00		7.5375E-03
			123.00		6.8270E-03
			126.00		7.0797E-03
		END_DATA
	END_SCAN  4
	BEGIN_SCAN  5
		TASK_NAME=MODE_INTERVAL
		PROGRAM=BeamAdjust 1.2
		MEAS_DATE=07-Oct-2010 14:23:21
		LINAC=A4
		MODALITY=X
		INPLANE_AXIS_DIR=TARGET_GUN
		CROSSPLANE_AXIS_DIR=LEFT_RIGHT
		DEPTH_AXIS_DIR=UP_DOWN
		ENERGY=6.00
		SSD=950.00
		WEDGE=None
		FIELD_INPLANE=100.00
		FIELD_CROSSPLANE=100.00
		FIELD_TYPE=RECTANGULAR
		GANTRY=0.00
		GANTRY_UPRIGHT_POSITION=0
		GANTRY_ROTATION=CW
		COLL_ANGLE=90.00
		COLL_OFFSET_INPLANE=0.00
		COLL_OFFSET_CROSSPLANE=0.00
		SCAN_DEVICE=STARCHECK
		ELECTROMETER=2D_ARRAY_INTERFACE
		DETECTOR=STARCHECK
		SCAN_CURVETYPE=CROSSPLANE_PROFILE
		SCAN_DEPTH=0.00
		SCAN_OFFAXIS_INPLANE=50.00
		SCAN_ANGLE=0.00
		SCAN_DIAGONAL=NOT_DIAGONAL
		MEAS_PRESET=TIME_PRESET
		MEAS_TIME=10.000
		MEAS_UNIT=GY
		PRESSURE=1013.25
		TEMPERATURE=20.00
		NORM_TEMPERATURE=20.00
		CORRECTION_FACTOR=1.0000
		CORRECTIONS=AIR_DENSITY_CORR;
		BEGIN_DATA
			-30.00		461.76E-03
			-15.00		476.98E-03
			15.00		449.08E-03
			30.00		452.54E-03
		END_DATA
	END_SCAN  5
	BEGIN_SCAN  6
		TASK_NAME=MODE_INTERVAL
		PROGRAM=BeamAdjust 1.2
		MEAS_DATE=07-Oct-2010 14:23:21
		LINAC=A4
		MODALITY=X
		INPLANE_AXIS_DIR=TARGET_GUN
		CROSSPLANE_AXIS_DIR=LEFT_RIGHT
		DEPTH_AXIS_DIR=UP_DOWN
		ENERGY=6.00
		SSD=950.00
		WEDGE=None
		FIELD_INPLANE=100.00
		FIELD_CROSSPLANE=100.00
		FIELD_TYPE=RECTANGULAR
		GANTRY=0.00
		GANTRY_UPRIGHT_POSITION=0
		GANTRY_ROTATION=CW
		COLL_ANGLE=90.00
		COLL_OFFSET_INPLANE=0.00
		COLL_OFFSET_CROSSPLANE=0.00
		SCAN_DEVICE=STARCHECK
		ELECTROMETER=2D_ARRAY_INTERFACE
		DETECTOR=STARCHECK
		SCAN_CURVETYPE=CROSSPLANE_PROFILE
		SCAN_DEPTH=0.00
		SCAN_OFFAXIS_INPLANE=100.00
		SCAN_ANGLE=0.00
		SCAN_DIAGONAL=NOT_DIAGONAL
		MEAS_PRESET=TIME_PRESET
		MEAS_TIME=10.000
		MEAS_UNIT=GY
		PRESSURE=1013.25
		TEMPERATURE=20.00
		NORM_TEMPERATURE=20.00
		CORRECTION_FACTOR=1.0000
		CORRECTIONS=AIR_DENSITY_CORR;
		BEGIN_DATA
			-60.00		10.346E-03
			-30.00		15.640E-03
			30.00		15.857E-03
			60.00		9.5906E-03
		END_DATA
	END_SCAN  6
	BEGIN_SCAN  7
		TASK_NAME=MODE_INTERVAL
		PROGRAM=BeamAdjust 1.2
		MEAS_DATE=07-Oct-2010 14:23:21
		LINAC=A4
		MODALITY=X
		INPLANE_AXIS_DIR=TARGET_GUN
		CROSSPLANE_AXIS_DIR=LEFT_RIGHT
		DEPTH_AXIS_DIR=UP_DOWN
		ENERGY=6.00
		SSD=950.00
		WEDGE=None
		FIELD_INPLANE=100.00
		FIELD_CROSSPLANE=100.00
		FIELD_TYPE=RECTANGULAR
		GANTRY=0.00
		GANTRY_UPRIGHT_POSITION=0
		GANTRY_ROTATION=CW
		COLL_ANGLE=90.00
		COLL_OFFSET_INPLANE=0.00
		COLL_OFFSET_CROSSPLANE=0.00
		SCAN_DEVICE=STARCHECK
		ELECTROMETER=2D_ARRAY_INTERFACE
		DETECTOR=STARCHECK
		SCAN_CURVETYPE=CROSSPLANE_PROFILE
		SCAN_DEPTH=0.00
		SCAN_OFFAXIS_INPLANE=130.00
		SCAN_ANGLE=0.00
		SCAN_DIAGONAL=NOT_DIAGONAL
		MEAS_PRESET=TIME_PRESET
		MEAS_TIME=10.000
		MEAS_UNIT=GY
		PRESSURE=1013.25
		TEMPERATURE=20.00
		NORM_TEMPERATURE=20.00
		CORRECTION_FACTOR=1.0000
		CORRECTIONS=AIR_DENSITY_CORR;
		BEGIN_DATA
			-130.00		1.6476E-03
			-80.00		4.5226E-03
			-40.00		7.6967E-03
			40.00		7.1493E-03
			80.00		4.1771E-03
			130.00		2.2560E-03
		END_DATA
	END_SCAN  7
	BEGIN_SCAN  8
		TASK_NAME=MODE_INTERVAL
		PROGRAM=BeamAdjust 1.2
		MEAS_DATE=07-Oct-2010 14:23:21
		LINAC=A4
		MODALITY=X
		INPLANE_AXIS_DIR=TARGET_GUN
		CROSSPLANE_AXIS_DIR=LEFT_RIGHT
		DEPTH_AXIS_DIR=UP_DOWN
		ENERGY=6.00
		SSD=950.00
		WEDGE=None
		FIELD_INPLANE=100.00
		FIELD_CROSSPLANE=100.00
		FIELD_TYPE=RECTANGULAR
		GANTRY=0.00
		GANTRY_UPRIGHT_POSITION=0
		GANTRY_ROTATION=CW
		COLL_ANGLE=90.00
		COLL_OFFSET_INPLANE=0.00
		COLL_OFFSET_CROSSPLANE=0.00
		SCAN_DEVICE=STARCHECK
		ELECTROMETER=2D_ARRAY_INTERFACE
		DETECTOR=STARCHECK
		SCAN_CURVETYPE=INPLANE_PROFILE
		SCAN_DEPTH=0.00
		SCAN_OFFAXIS_CROSSPLANE=-130.00
		SCAN_ANGLE=0.00
		SCAN_DIAGONAL=NOT_DIAGONAL
		MEAS_PRESET=TIME_PRESET
		MEAS_TIME=10.000
		MEAS_UNIT=GY
		PRESSURE=1013.25
		TEMPERATURE=20.00
		NORM_TEMPERATURE=20.00
		CORRECTION_FACTOR=1.0000
		CORRECTIONS=AIR_DENSITY_CORR;
		BEGIN_DATA
			-130.00		2.4629E-03
			-125.00		2.3756E-03
			-120.00		2.9881E-03
			-115.00		3.0774E-03
			-110.00		3.3738E-03
			-105.00		3.4892E-03
			-100.00		3.8249E-03
			-95.00		4.3470E-03
			-90.00		4.5149E-03
			-85.00		4.2612E-03
			-80.00		4.5828E-03
			-75.00		4.7037E-03
			-70.00		4.9060E-03
			-65.00		4.6706E-03
			-60.00		4.9776E-03
			-55.00		6.1024E-03
			-50.00		4.0507E-03
			-45.00		4.3761E-03
			-40.00		5.0807E-03
			-35.00		5.0107E-03
			-30.00		5.3728E-03
			-25.00		5.2276E-03
			-20.00		5.1195E-03
			-15.00		4.9792E-03
			-10.00		5.4765E-03
			-5.00		6.0596E-03
			0.00		5.8112E-03
			5.00		6.4765E-03
			10.00		5.6626E-03
			15.00		5.5285E-03
			20.00		5.9682E-03
			25.00		4.9303E-03
			30.00		5.6274E-03
			35.00		5.4048E-03
			40.00		4.8579E-03
			45.00		4.9113E-03
			50.00		4.8941E-03
			55.00		4.6043E-03
			60.00		4.2481E-03
			65.00		4.4428E-03
			70.00		3.6120E-03
			75.00		3.8900E-03
			80.00		3.7662E-03
			85.00		3.3173E-03
			90.00		3.2322E-03
			95.00		3.2308E-03
			100.00		3.0235E-03
			105.00		2.4277E-03
			110.00		2.5709E-03
			115.00		2.3262E-03
			120.00		2.2688E-03
			125.00		2.7833E-03
			130.00		1.6476E-03
		END_DATA
	END_SCAN  8
	BEGIN_SCAN  9
		TASK_NAME=MODE_INTERVAL
		PROGRAM=BeamAdjust 1.2
		MEAS_DATE=07-Oct-2010 14:23:21
		LINAC=A4
		MODALITY=X
		INPLANE_AXIS_DIR=TARGET_GUN
		CROSSPLANE_AXIS_DIR=LEFT_RIGHT
		DEPTH_AXIS_DIR=UP_DOWN
		ENERGY=6.00
		SSD=950.00
		WEDGE=None
		FIELD_INPLANE=100.00
		FIELD_CROSSPLANE=100.00
		FIELD_TYPE=RECTANGULAR
		GANTRY=0.00
		GANTRY_UPRIGHT_POSITION=0
		GANTRY_ROTATION=CW
		COLL_ANGLE=90.00
		COLL_OFFSET_INPLANE=0.00
		COLL_OFFSET_CROSSPLANE=0.00
		SCAN_DEVICE=STARCHECK
		ELECTROMETER=2D_ARRAY_INTERFACE
		DETECTOR=STARCHECK
		SCAN_CURVETYPE=INPLANE_PROFILE
		SCAN_DEPTH=0.00
		SCAN_OFFAXIS_CROSSPLANE=-100.00
		SCAN_ANGLE=0.00
		SCAN_DIAGONAL=NOT_DIAGONAL
		MEAS_PRESET=TIME_PRESET
		MEAS_TIME=10.000
		MEAS_UNIT=GY
		PRESSURE=1013.25
		TEMPERATURE=20.00
		NORM_TEMPERATURE=20.00
		CORRECTION_FACTOR=1.0000
		CORRECTIONS=AIR_DENSITY_CORR;
		BEGIN_DATA
			-60.00		8.1359E-03
			-30.00		10.368E-03
			30.00		10.046E-03
			60.00		8.2042E-03
		END_DATA
	END_SCAN  9
	BEGIN_SCAN  10
		TASK_NAME=MODE_INTERVAL
		PROGRAM=BeamAdjust 1.2
		MEAS_DATE=07-Oct-2010 14:23:21
		LINAC=A4
		MODALITY=X
		INPLANE_AXIS_DIR=TARGET_GUN
		CROSSPLANE_AXIS_DIR=LEFT_RIGHT
		DEPTH_AXIS_DIR=UP_DOWN
		ENERGY=6.00
		SSD=950.00
		WEDGE=None
		FIELD_INPLANE=100.00
		FIELD_CROSSPLANE=100.00
		FIELD_TYPE=RECTANGULAR
		GANTRY=0.00
		GANTRY_UPRIGHT_POSITION=0
		GANTRY_ROTATION=CW
		COLL_ANGLE=90.00
		COLL_OFFSET_INPLANE=0.00
		COLL_OFFSET_CROSSPLANE=0.00
		SCAN_DEVICE=STARCHECK
		ELECTROMETER=2D_ARRAY_INTERFACE
		DETECTOR=STARCHECK
		SCAN_CURVETYPE=INPLANE_PROFILE
		SCAN_DEPTH=0.00
		SCAN_OFFAXIS_CROSSPLANE=-50.00
		SCAN_ANGLE=0.00
		SCAN_DIAGONAL=NOT_DIAGONAL
		MEAS_PRESET=TIME_PRESET
		MEAS_TIME=10.000
		MEAS_UNIT=GY
		PRESSURE=1013.25
		TEMPERATURE=20.00
		NORM_TEMPERATURE=20.00
		CORRECTION_FACTOR=1.0000
		CORRECTIONS=AIR_DENSITY_CORR;
		BEGIN_DATA
			-30.00		394.85E-03
			-15.00		392.28E-03
			15.00		382.91E-03
			30.00		372.51E-03
		END_DATA
	END_SCAN  10
	BEGIN_SCAN  11
		TASK_NAME=MODE_INTERVAL
		PROGRAM=BeamAdjust 1.2
		MEAS_DATE=07-Oct-2010 14:23:21
		LINAC=A4
		MODALITY=X
		INPLANE_AXIS_DIR=TARGET_GUN
		CROSSPLANE_AXIS_DIR=LEFT_RIGHT
		DEPTH_AXIS_DIR=UP_DOWN
		ENERGY=6.00
		SSD=950.00
		WEDGE=None
		FIELD_INPLANE=100.00
		FIELD_CROSSPLANE=100.00
		FIELD_TYPE=RECTANGULAR
		GANTRY=0.00
		GANTRY_UPRIGHT_POSITION=0
		GANTRY_ROTATION=CW
		COLL_ANGLE=90.00
		COLL_OFFSET_INPLANE=0.00
		COLL_OFFSET_CROSSPLANE=0.00
		SCAN_DEVICE=STARCHECK
		ELECTROMETER=2D_ARRAY_INTERFACE
		DETECTOR=STARCHECK
		SCAN_CURVETYPE=INPLANE_PROFILE
		SCAN_DEPTH=0.00
		SCAN_OFFAXIS_CROSSPLANE=0.00
		SCAN_ANGLE=0.00
		SCAN_DIAGONAL=NOT_DIAGONAL
		MEAS_PRESET=TIME_PRESET
		MEAS_TIME=10.000
		MEAS_UNIT=GY
		PRESSURE=1013.25
		TEMPERATURE=20.00
		NORM_TEMPERATURE=20.00
		CORRECTION_FACTOR=1.0000
		CORRECTIONS=AIR_DENSITY_CORR;
		BEGIN_DATA
			-126.00		8.7958E-03
			-123.00		9.0842E-03
			-120.00		9.5399E-03
			-117.00		10.736E-03
			-114.00		11.156E-03
			-111.00		11.736E-03
			-108.00		12.927E-03
			-105.00		13.797E-03
			-102.00		15.140E-03
			-99.00		15.654E-03
			-96.00		17.053E-03
			-93.00		19.373E-03
			-90.00		20.460E-03
			-87.00		22.250E-03
			-84.00		23.943E-03
			-81.00		26.662E-03
			-78.00		28.430E-03
			-75.00		30.821E-03
			-72.00		33.830E-03
			-69.00		36.936E-03
			-66.00		41.436E-03
			-63.00		46.905E-03
			-60.00		53.603E-03
			-57.00		65.684E-03
			-54.00		88.085E-03
			-51.00		151.54E-03
			-48.00		360.63E-03
			-45.00		579.56E-03
			-42.00		629.32E-03
			-39.00		646.57E-03
			-36.00		654.49E-03
			-33.00		659.46E-03
			-30.00		664.55E-03
			-27.00		666.08E-03
			-24.00		666.04E-03
			-21.00		664.71E-03
			-18.00		670.75E-03
			-15.00		669.17E-03
			-12.00		671.44E-03
			-9.00		673.04E-03
			-6.00		670.33E-03
			0.00		668.73E-03
			6.00		672.19E-03
			9.00		672.26E-03
			12.00		672.81E-03
			15.00		671.36E-03
			18.00		666.42E-03
			21.00		665.17E-03
			24.00		662.34E-03
			27.00		663.88E-03
			30.00		660.26E-03
			33.00		659.06E-03
			36.00		657.65E-03
			39.00		648.47E-03
			42.00		642.54E-03
			45.00		628.42E-03
			48.00		580.48E-03
			51.00		381.99E-03
			54.00		162.19E-03
			57.00		90.571E-03
			60.00		66.173E-03
			63.00		54.291E-03
			66.00		47.562E-03
			69.00		41.424E-03
			72.00		37.481E-03
			75.00		33.412E-03
			78.00		29.858E-03
			81.00		27.893E-03
			84.00		25.449E-03
			87.00		23.479E-03
			90.00		22.018E-03
			93.00		19.764E-03
			96.00		18.932E-03
			99.00		17.019E-03
			102.00		15.157E-03
			105.00		14.233E-03
			108.00		13.796E-03
			111.00		12.477E-03
			114.00		11.673E-03
			117.00		10.803E-03
			120.00		9.9554E-03
			123.00		9.4395E-03
			126.00		8.5433E-03
		END_DATA
	END_SCAN  11
	BEGIN_SCAN  12
		TASK_NAME=MODE_INTERVAL
		PROGRAM=BeamAdjust 1.2
		MEAS_DATE=07-Oct-2010 14:23:21
		LINAC=A4
		MODALITY=X
		INPLANE_AXIS_DIR=TARGET_GUN
		CROSSPLANE_AXIS_DIR=LEFT_RIGHT
		DEPTH_AXIS_DIR=UP_DOWN
		ENERGY=6.00
		SSD=950.00
		WEDGE=None
		FIELD_INPLANE=100.00
		FIELD_CROSSPLANE=100.00
		FIELD_TYPE=RECTANGULAR
		GANTRY=0.00
		GANTRY_UPRIGHT_POSITION=0
		GANTRY_ROTATION=CW
		COLL_ANGLE=90.00
		COLL_OFFSET_INPLANE=0.00
		COLL_OFFSET_CROSSPLANE=0.00
		SCAN_DEVICE=STARCHECK
		ELECTROMETER=2D_ARRAY_INTERFACE
		DETECTOR=STARCHECK
		SCAN_CURVETYPE=INPLANE_PROFILE
		SCAN_DEPTH=0.00
		SCAN_OFFAXIS_CROSSPLANE=50.00
		SCAN_ANGLE=0.00
		SCAN_DIAGONAL=NOT_DIAGONAL
		MEAS_PRESET=TIME_PRESET
		MEAS_TIME=10.000
		MEAS_UNIT=GY
		PRESSURE=1013.25
		TEMPERATURE=20.00
		NORM_TEMPERATURE=20.00
		CORRECTION_FACTOR=1.0000
		CORRECTIONS=AIR_DENSITY_CORR;
		BEGIN_DATA
			-30.00		327.82E-03
			-15.00		337.99E-03
			15.00		346.20E-03
			30.00		348.16E-03
		END_DATA
	END_SCAN  12
	BEGIN_SCAN  13
		TASK_NAME=MODE_INTERVAL
		PROGRAM=BeamAdjust 1.2
		MEAS_DATE=07-Oct-2010 14:23:21
		LINAC=A4
		MODALITY=X
		INPLANE_AXIS_DIR=TARGET_GUN
		CROSSPLANE_AXIS_DIR=LEFT_RIGHT
		DEPTH_AXIS_DIR=UP_DOWN
		ENERGY=6.00
		SSD=950.00
		WEDGE=None
		FIELD_INPLANE=100.00
		FIELD_CROSSPLANE=100.00
		FIELD_TYPE=RECTANGULAR
		GANTRY=0.00
		GANTRY_UPRIGHT_POSITION=0
		GANTRY_ROTATION=CW
		COLL_ANGLE=90.00
		COLL_OFFSET_INPLANE=0.00
		COLL_OFFSET_CROSSPLANE=0.00
		SCAN_DEVICE=STARCHECK
		ELECTROMETER=2D_ARRAY_INTERFACE
		DETECTOR=STARCHECK
		SCAN_CURVETYPE=INPLANE_PROFILE
		SCAN_DEPTH=0.00
		SCAN_OFFAXIS_CROSSPLANE=100.00
		SCAN_ANGLE=0.00
		SCAN_DIAGONAL=NOT_DIAGONAL
		MEAS_PRESET=TIME_PRESET
		MEAS_TIME=10.000
		MEAS_UNIT=GY
		PRESSURE=1013.25
		TEMPERATURE=20.00
		NORM_TEMPERATURE=20.00
		CORRECTION_FACTOR=1.0000
		CORRECTIONS=AIR_DENSITY_CORR;
		BEGIN_DATA
			-60.00		7.6691E-03
			-30.00		10.214E-03
			30.00		10.731E-03
			60.00		7.5551E-03
		END_DATA
	END_SCAN  13
	BEGIN_SCAN  14
		TASK_NAME=MODE_INTERVAL
		PROGRAM=BeamAdjust 1.2
		MEAS_DATE=07-Oct-2010 14:23:21
		LINAC=A4
		MODALITY=X
		INPLANE_AXIS_DIR=TARGET_GUN
		CROSSPLANE_AXIS_DIR=LEFT_RIGHT
		DEPTH_AXIS_DIR=UP_DOWN
		ENERGY=6.00
		SSD=950.00
		WEDGE=None
		FIELD_INPLANE=100.00
		FIELD_CROSSPLANE=100.00
		FIELD_TYPE=RECTANGULAR
		GANTRY=0.00
		GANTRY_UPRIGHT_POSITION=0
		GANTRY_ROTATION=CW
		COLL_ANGLE=90.00
		COLL_OFFSET_INPLANE=0.00
		COLL_OFFSET_CROSSPLANE=0.00
		SCAN_DEVICE=STARCHECK
		ELECTROMETER=2D_ARRAY_INTERFACE
		DETECTOR=STARCHECK
		SCAN_CURVETYPE=INPLANE_PROFILE
		SCAN_DEPTH=0.00
		SCAN_OFFAXIS_CROSSPLANE=130.00
		SCAN_ANGLE=0.00
		SCAN_DIAGONAL=NOT_DIAGONAL
		MEAS_PRESET=TIME_PRESET
		MEAS_TIME=10.000
		MEAS_UNIT=GY
		PRESSURE=1013.25
		TEMPERATURE=20.00
		NORM_TEMPERATURE=20.00
		CORRECTION_FACTOR=1.0000
		CORRECTIONS=AIR_DENSITY_CORR;
		BEGIN_DATA
			-130.00		1.8058E-03
			-125.00		2.5196E-03
			-120.00		2.0577E-03
			-115.00		2.6100E-03
			-110.00		2.5584E-03
			-105.00		2.4081E-03
			-100.00		3.1338E-03
			-95.00		2.7166E-03
			-90.00		2.6762E-03
			-85.00		3.7311E-03
			-80.00		3.2831E-03
			-75.00		3.6174E-03
			-70.00		3.9219E-03
			-65.00		3.6189E-03
			-60.00		4.6196E-03
			-55.00		4.0314E-03
			-50.00		4.2811E-03
			-45.00		4.5703E-03
			-40.00		4.9659E-03
			-35.00		4.8913E-03
			-30.00		5.3201E-03
			-25.00		4.8912E-03
			-20.00		5.3930E-03
			-15.00		5.1376E-03
			-10.00		4.6783E-03
			-5.00		5.8142E-03
			0.00		6.3683E-03
			5.00		5.9424E-03
			10.00		5.5202E-03
			15.00		5.1837E-03
			20.00		5.5214E-03
			25.00		5.3753E-03
			30.00		5.2613E-03
			35.00		5.2775E-03
			40.00		5.6784E-03
			45.00		5.2719E-03
			50.00		5.0536E-03
			55.00		5.2131E-03
			60.00		4.9808E-03
			65.00		4.2329E-03
			70.00		4.5809E-03
			75.00		4.3327E-03
			80.00		4.1833E-03
			85.00		3.7875E-03
			90.00		3.3193E-03
			95.00		3.3340E-03
			100.00		3.8007E-03
			105.00		2.5521E-03
			110.00		2.9428E-03
			115.00		2.7344E-03
			120.00		2.8171E-03
			125.00		2.4718E-03
			130.00		2.2560E-03
		END_DATA
	END_SCAN  14
	BEGIN_SCAN  15
		TASK_NAME=MODE_INTERVAL
		PROGRAM=BeamAdjust 1.2
		MEAS_DATE=07-Oct-2010 14:23:21
		LINAC=A4
		MODALITY=X
		INPLANE_AXIS_DIR=TARGET_GUN
		CROSSPLANE_AXIS_DIR=LEFT_RIGHT
		DEPTH_AXIS_DIR=UP_DOWN
		ENERGY=6.00
		SSD=950.00
		WEDGE=None
		FIELD_INPLANE=100.00
		FIELD_CROSSPLANE=100.00
		FIELD_TYPE=RECTANGULAR
		GANTRY=0.00
		GANTRY_UPRIGHT_POSITION=0
		GANTRY_ROTATION=CW
		COLL_ANGLE=90.00
		COLL_OFFSET_INPLANE=0.00
		COLL_OFFSET_CROSSPLANE=0.00
		SCAN_DEVICE=STARCHECK
		ELECTROMETER=2D_ARRAY_INTERFACE
		DETECTOR=STARCHECK
		SCAN_CURVETYPE=INPLANE_PROFILE
		SCAN_DEPTH=0.00
		SCAN_OFFAXIS_CROSSPLANE=0.00
		SCAN_ANGLE=0.00
		SCAN_DIAGONAL=FIRST_DIAGONAL
		MEAS_PRESET=TIME_PRESET
		MEAS_TIME=10.000
		MEAS_UNIT=GY
		PRESSURE=1013.25
		TEMPERATURE=20.00
		NORM_TEMPERATURE=20.00
		CORRECTION_FACTOR=1.0000
		CORRECTIONS=AIR_DENSITY_CORR;
		BEGIN_DATA
			-172.40		2.0263E-03
			-169.40		3.0790E-03
			-166.40		4.1240E-03
			-163.40		3.4508E-03
			-160.40		3.9460E-03
			-157.40		3.8278E-03
			-154.40		3.7784E-03
			-151.40		3.8471E-03
			-148.40		4.3343E-03
			-145.40		5.2835E-03
			-142.40		4.9429E-03
			-139.40		5.9873E-03
			-136.40		5.8889E-03
			-133.40		6.6081E-03
			-130.40		7.1544E-03
			-127.40		6.9120E-03
			-124.40		8.5111E-03
			-121.40		8.4370E-03
			-118.40		9.4496E-03
			-115.40		10.107E-03
			-112.40		10.959E-03
			-109.40		11.711E-03
			-106.40		13.424E-03
			-103.40		13.716E-03
			-100.40		14.939E-03
			-97.40		17.129E-03
			-94.40		18.874E-03
			-91.40		20.785E-03
			-88.40		23.863E-03
			-85.40		26.055E-03
			-82.40		30.636E-03
			-79.40		34.713E-03
			-76.40		43.269E-03
			-73.40		63.281E-03
			-70.40		128.27E-03
			-67.40		305.88E-03
			-64.40		484.51E-03
			-61.40		578.15E-03
			-58.40		613.88E-03
			-55.40		631.27E-03
			-52.40		640.90E-03
			-49.40		646.86E-03
			-46.40		650.35E-03
			-43.40		653.61E-03
			-40.40		656.70E-03
			-37.40		661.59E-03
			-34.40		661.31E-03
			-31.40		663.78E-03
			-28.40		662.12E-03
			-25.40		665.28E-03
			-22.40		665.11E-03
			-19.40		665.29E-03
			-16.40		669.02E-03
			-13.40		672.24E-03
			0.00		668.73E-03
			13.40		674.21E-03
			16.40		669.25E-03
			19.40		668.99E-03
			22.40		667.89E-03
			25.40		666.30E-03
			28.40		665.85E-03
			31.40		663.07E-03
			34.40		660.45E-03
			37.40		662.92E-03
			40.40		660.64E-03
			43.40		657.65E-03
			46.40		655.78E-03
			49.40		650.87E-03
			52.40		646.84E-03
			55.40		636.69E-03
			58.40		626.10E-03
			61.40		606.27E-03
			64.40		556.71E-03
			67.40		425.77E-03
			70.40		217.86E-03
			73.40		89.132E-03
			76.40		51.829E-03
			79.40		38.610E-03
			82.40		31.915E-03
			85.40		27.926E-03
			88.40		24.714E-03
			91.40		21.850E-03
			94.40		19.806E-03
			97.40		17.720E-03
			100.40		15.730E-03
			103.40		15.110E-03
			106.40		14.160E-03
			109.40		12.037E-03
			112.40		10.897E-03
			115.40		10.085E-03
			118.40		9.2848E-03
			121.40		8.4825E-03
			124.40		7.9180E-03
			127.40		7.6985E-03
			130.40		6.9652E-03
			133.40		6.4907E-03
			136.40		5.0670E-03
			139.40		5.0190E-03
			142.40		4.5597E-03
			145.40		4.1740E-03
			148.40		5.1504E-03
			151.40		3.5582E-03
			154.40		3.4978E-03
			157.40		3.7093E-03
			160.40		2.4637E-03
			163.40		2.3088E-03
			166.40		2.8201E-03
			169.40		2.4062E-03
			172.40		2.3549E-03
		END_DATA
	END_SCAN  15
	BEGIN_SCAN  16
		TASK_NAME=MODE_INTERVAL
		PROGRAM=BeamAdjust 1.2
		MEAS_DATE=07-Oct-2010 14:23:21
		LINAC=A4
		MODALITY=X
		INPLANE_AXIS_DIR=GUN_TARGET
		CROSSPLANE_AXIS_DIR=LEFT_RIGHT
		DEPTH_AXIS_DIR=UP_DOWN
		ENERGY=6.00
		SSD=950.00
		WEDGE=None
		FIELD_INPLANE=100.00
		FIELD_CROSSPLANE=100.00
		FIELD_TYPE=RECTANGULAR
		GANTRY=0.00
		GANTRY_UPRIGHT_POSITION=0
		GANTRY_ROTATION=CW
		COLL_ANGLE=90.00
		COLL_OFFSET_INPLANE=0.00
		COLL_OFFSET_CROSSPLANE=0.00
		SCAN_DEVICE=STARCHECK
		ELECTROMETER=2D_ARRAY_INTERFACE
		DETECTOR=STARCHECK
		SCAN_CURVETYPE=INPLANE_PROFILE
		SCAN_DEPTH=0.00
		SCAN_OFFAXIS_CROSSPLANE=0.00
		SCAN_ANGLE=0.00
		SCAN_DIAGONAL=SECOND_DIAGONAL
		MEAS_PRESET=TIME_PRESET
		MEAS_TIME=10.000
		MEAS_UNIT=GY
		PRESSURE=1013.25
		TEMPERATURE=20.00
		NORM_TEMPERATURE=20.00
		CORRECTION_FACTOR=1.0000
		CORRECTIONS=AIR_DENSITY_CORR;
		BEGIN_DATA
			-172.40		2.4890E-03
			-169.40		2.5567E-03
			-166.40		2.7371E-03
			-163.40		2.2783E-03
			-160.40		3.3562E-03
			-157.40		3.3360E-03
			-154.40		3.5526E-03
			-151.40		4.1893E-03
			-148.40		4.0279E-03
			-145.40		4.4982E-03
			-142.40		4.8438E-03
			-139.40		5.5721E-03
			-136.40		5.4338E-03
			-133.40		6.2591E-03
			-130.40		6.7481E-03
			-127.40		7.2294E-03
			-124.40		8.2345E-03
			-121.40		8.5925E-03
			-118.40		9.2415E-03
			-115.40		9.7272E-03
			-112.40		10.375E-03
			-109.40		11.694E-03
			-106.40		12.556E-03
			-103.40		14.098E-03
			-100.40		14.971E-03
			-97.40		17.430E-03
			-94.40		18.000E-03
			-91.40		20.436E-03
			-88.40		22.382E-03
			-85.40		24.779E-03
			-82.40		28.758E-03
			-79.40		33.463E-03
			-76.40		40.934E-03
			-73.40		56.888E-03
			-70.40		104.87E-03
			-67.40		262.05E-03
			-64.40		463.65E-03
			-61.40		574.27E-03
			-58.40		616.34E-03
			-55.40		633.53E-03
			-52.40		646.70E-03
			-49.40		652.33E-03
			-46.40		656.35E-03
			-43.40		659.49E-03
			-40.40		662.06E-03
			-37.40		664.78E-03
			-34.40		665.15E-03
			-31.40		666.40E-03
			-28.40		668.54E-03
			-25.40		667.79E-03
			-22.40		666.24E-03
			-19.40		668.96E-03
			-16.40		670.59E-03
			-13.40		674.01E-03
			0.00		668.73E-03
			13.40		672.82E-03
			16.40		670.11E-03
			19.40		666.68E-03
			22.40		663.55E-03
			25.40		663.42E-03
			28.40		662.20E-03
			31.40		660.97E-03
			34.40		658.02E-03
			37.40		657.58E-03
			40.40		656.60E-03
			43.40		654.23E-03
			46.40		653.20E-03
			49.40		649.23E-03
			52.40		641.77E-03
			55.40		634.35E-03
			58.40		626.51E-03
			61.40		606.59E-03
			64.40		563.47E-03
			67.40		444.35E-03
			70.40		236.74E-03
			73.40		95.102E-03
			76.40		53.233E-03
			79.40		39.217E-03
			82.40		33.167E-03
			85.40		28.547E-03
			88.40		25.234E-03
			91.40		23.036E-03
			94.40		20.151E-03
			97.40		18.669E-03
			100.40		15.686E-03
			103.40		14.942E-03
			106.40		13.589E-03
			109.40		12.468E-03
			112.40		11.249E-03
			115.40		10.530E-03
			118.40		9.6054E-03
			121.40		8.6899E-03
			124.40		7.9225E-03
			127.40		7.2847E-03
			130.40		7.3860E-03
			133.40		6.9865E-03
			136.40		5.9167E-03
			139.40		6.0015E-03
			142.40		5.6146E-03
			145.40		5.2738E-03
			148.40		4.8456E-03
			151.40		4.0266E-03
			154.40		4.1295E-03
			157.40		3.8833E-03
			160.40		3.8085E-03
			163.40		3.7007E-03
			166.40		3.5807E-03
			169.40		2.5753E-03
			172.40		2.3464E-03
		END_DATA
	END_SCAN  16
END_SCAN_DATA
