BEGIN_SCAN_DATA
	FORMAT=CC-Export V1.9                  
	FILE_CREATION_DATE=07-Oct-2010 14:23:54
	LAST_MODIFIED=07-Oct-2010 14:23:54
	BEGIN_SCAN  1
		TASK_NAME=MODE_INTERVAL
		PROGRAM=BeamAdjust 1.2
		MEAS_DATE=07-Oct-2010 14:23:54
		LINAC=A4
		MODALITY=X
		INPLANE_AXIS_DIR=TARGET_GUN
		CROSSPLANE_AXIS_DIR=LEFT_RIGHT
		DEPTH_AXIS_DIR=UP_DOWN
		ENERGY=6.00
		SSD=950.00
		WEDGE=None
		FIELD_INPLANE=100.00
		FIELD_CROSSPLANE=100.00
		FIELD_TYPE=RECTANGULAR
		GANTRY=0.00
		GANTRY_UPRIGHT_POSITION=0
		GANTRY_ROTATION=CW
		COLL_ANGLE=90.00
		COLL_OFFSET_INPLANE=0.00
		COLL_OFFSET_CROSSPLANE=0.00
		SCAN_DEVICE=STARCHECK
		ELECTROMETER=2D_ARRAY_INTERFACE
		DETECTOR=STARCHECK
		SCAN_CURVETYPE=CROSSPLANE_PROFILE
		SCAN_DEPTH=0.00
		SCAN_OFFAXIS_INPLANE=-130.00
		SCAN_ANGLE=0.00
		SCAN_DIAGONAL=NOT_DIAGONAL
		MEAS_PRESET=TIME_PRESET
		MEAS_TIME=10.000
		MEAS_UNIT=GY
		PRESSURE=1013.25
		TEMPERATURE=20.00
		NORM_TEMPERATURE=20.00
		CORRECTION_FACTOR=1.0000
		CORRECTIONS=AIR_DENSITY_CORR;
		BEGIN_DATA
			-130.00		2.1227E-03
			-80.00		4.1238E-03
			-40.00		6.8022E-03
			40.00		6.3044E-03
			80.00		3.4163E-03
			130.00		1.7773E-03
		END_DATA
	END_SCAN  1
	BEGIN_SCAN  2
		TASK_NAME=MODE_INTERVAL
		PROGRAM=BeamAdjust 1.2
		MEAS_DATE=07-Oct-2010 14:23:54
		LINAC=A4
		MODALITY=X
		INPLANE_AXIS_DIR=TARGET_GUN
		CROSSPLANE_AXIS_DIR=LEFT_RIGHT
		DEPTH_AXIS_DIR=UP_DOWN
		ENERGY=6.00
		SSD=950.00
		WEDGE=None
		FIELD_INPLANE=100.00
		FIELD_CROSSPLANE=100.00
		FIELD_TYPE=RECTANGULAR
		GANTRY=0.00
		GANTRY_UPRIGHT_POSITION=0
		GANTRY_ROTATION=CW
		COLL_ANGLE=90.00
		COLL_OFFSET_INPLANE=0.00
		COLL_OFFSET_CROSSPLANE=0.00
		SCAN_DEVICE=STARCHECK
		ELECTROMETER=2D_ARRAY_INTERFACE
		DETECTOR=STARCHECK
		SCAN_CURVETYPE=CROSSPLANE_PROFILE
		SCAN_DEPTH=0.00
		SCAN_OFFAXIS_INPLANE=-100.00
		SCAN_ANGLE=0.00
		SCAN_DIAGONAL=NOT_DIAGONAL
		MEAS_PRESET=TIME_PRESET
		MEAS_TIME=10.000
		MEAS_UNIT=GY
		PRESSURE=1013.25
		TEMPERATURE=20.00
		NORM_TEMPERATURE=20.00
		CORRECTION_FACTOR=1.0000
		CORRECTIONS=AIR_DENSITY_CORR;
		BEGIN_DATA
			-60.00		9.6504E-03
			-30.00		13.487E-03
			30.00		14.488E-03
			60.00		9.4392E-03
		END_DATA
	END_SCAN  2
	BEGIN_SCAN  3
		TASK_NAME=MODE_INTERVAL
		PROGRAM=BeamAdjust 1.2
		MEAS_DATE=07-Oct-2010 14:23:54
		LINAC=A4
		MODALITY=X
		INPLANE_AXIS_DIR=TARGET_GUN
		CROSSPLANE_AXIS_DIR=LEFT_RIGHT
		DEPTH_AXIS_DIR=UP_DOWN
		ENERGY=6.00
		SSD=950.00
		WEDGE=None
		FIELD_INPLANE=100.00
		FIELD_CROSSPLANE=100.00
		FIELD_TYPE=RECTANGULAR
		GANTRY=0.00
		GANTRY_UPRIGHT_POSITION=0
		GANTRY_ROTATION=CW
		COLL_ANGLE=90.00
		COLL_OFFSET_INPLANE=0.00
		COLL_OFFSET_CROSSPLANE=0.00
		SCAN_DEVICE=STARCHECK
		ELECTROMETER=2D_ARRAY_INTERFACE
		DETECTOR=STARCHECK
		SCAN_CURVETYPE=CROSSPLANE_PROFILE
		SCAN_DEPTH=0.00
		SCAN_OFFAXIS_INPLANE=-50.00
		SCAN_ANGLE=0.00
		SCAN_DIAGONAL=NOT_DIAGONAL
		MEAS_PRESET=TIME_PRESET
		MEAS_TIME=10.000
		MEAS_UNIT=GY
		PRESSURE=1013.25
		TEMPERATURE=20.00
		NORM_TEMPERATURE=20.00
		CORRECTION_FACTOR=1.0000
		CORRECTIONS=AIR_DENSITY_CORR;
		BEGIN_DATA
			-30.00		185.85E-03
			-15.00		161.49E-03
			15.00		176.93E-03
			30.00		183.44E-03
		END_DATA
	END_SCAN  3
	BEGIN_SCAN  4
		TASK_NAME=MODE_INTERVAL
		PROGRAM=BeamAdjust 1.2
		MEAS_DATE=07-Oct-2010 14:23:54
		LINAC=A4
		MODALITY=X
		INPLANE_AXIS_DIR=TARGET_GUN
		CROSSPLANE_AXIS_DIR=LEFT_RIGHT
		DEPTH_AXIS_DIR=UP_DOWN
		ENERGY=6.00
		SSD=950.00
		WEDGE=None
		FIELD_INPLANE=100.00
		FIELD_CROSSPLANE=100.00
		FIELD_TYPE=RECTANGULAR
		GANTRY=0.00
		GANTRY_UPRIGHT_POSITION=0
		GANTRY_ROTATION=CW
		COLL_ANGLE=90.00
		COLL_OFFSET_INPLANE=0.00
		COLL_OFFSET_CROSSPLANE=0.00
		SCAN_DEVICE=STARCHECK
		ELECTROMETER=2D_ARRAY_INTERFACE
		DETECTOR=STARCHECK
		SCAN_CURVETYPE=CROSSPLANE_PROFILE
		SCAN_DEPTH=0.00
		SCAN_OFFAXIS_INPLANE=0.00
		SCAN_ANGLE=0.00
		SCAN_DIAGONAL=NOT_DIAGONAL
		MEAS_PRESET=TIME_PRESET
		MEAS_TIME=10.000
		MEAS_UNIT=GY
		PRESSURE=1013.25
		TEMPERATURE=20.00
		NORM_TEMPERATURE=20.00
		CORRECTION_FACTOR=1.0000
		CORRECTIONS=AIR_DENSITY_CORR;
		BEGIN_DATA
			-126.00		6.3603E-03
			-123.00		7.4025E-03
			-120.00		8.1677E-03
			-117.00		8.2146E-03
			-114.00		8.8116E-03
			-111.00		9.4641E-03
			-108.00		10.066E-03
			-105.00		10.683E-03
			-102.00		11.667E-03
			-99.00		12.741E-03
			-96.00		13.662E-03
			-93.00		15.412E-03
			-90.00		16.097E-03
			-87.00		18.332E-03
			-84.00		19.864E-03
			-81.00		22.095E-03
			-78.00		23.688E-03
			-75.00		27.090E-03
			-72.00		29.515E-03
			-69.00		34.211E-03
			-66.00		39.228E-03
			-63.00		45.011E-03
			-60.00		54.898E-03
			-57.00		72.258E-03
			-54.00		113.84E-03
			-51.00		289.20E-03
			-48.00		554.96E-03
			-45.00		617.99E-03
			-42.00		637.63E-03
			-39.00		650.33E-03
			-36.00		656.03E-03
			-33.00		656.85E-03
			-30.00		657.98E-03
			-27.00		661.56E-03
			-24.00		663.58E-03
			-21.00		663.62E-03
			-18.00		669.42E-03
			-15.00		669.99E-03
			-12.00		669.18E-03
			-9.00		671.34E-03
			-6.00		670.46E-03
			0.00		669.32E-03
			6.00		672.75E-03
			9.00		672.06E-03
			12.00		670.11E-03
			15.00		668.93E-03
			18.00		668.01E-03
			21.00		666.20E-03
			24.00		662.70E-03
			27.00		666.89E-03
			30.00		664.87E-03
			33.00		662.74E-03
			36.00		659.35E-03
			39.00		652.55E-03
			42.00		641.70E-03
			45.00		616.46E-03
			48.00		528.07E-03
			51.00		235.29E-03
			54.00		102.73E-03
			57.00		68.676E-03
			60.00		52.840E-03
			63.00		44.471E-03
			66.00		37.661E-03
			69.00		32.973E-03
			72.00		29.475E-03
			75.00		26.455E-03
			78.00		23.636E-03
			81.00		21.621E-03
			84.00		19.349E-03
			87.00		17.822E-03
			90.00		16.603E-03
			93.00		14.941E-03
			96.00		14.146E-03
			99.00		12.518E-03
			102.00		11.974E-03
			105.00		11.017E-03
			108.00		10.217E-03
			111.00		9.4225E-03
			114.00		8.1890E-03
			117.00		8.2712E-03
			120.00		6.9741E-03
			123.00		6.9130E-03
			126.00		6.9465E-03
		END_DATA
	END_SCAN  4
	BEGIN_SCAN  5
		TASK_NAME=MODE_INTERVAL
		PROGRAM=BeamAdjust 1.2
		MEAS_DATE=07-Oct-2010 14:23:54
		LINAC=A4
		MODALITY=X
		INPLANE_AXIS_DIR=TARGET_GUN
		CROSSPLANE_AXIS_DIR=LEFT_RIGHT
		DEPTH_AXIS_DIR=UP_DOWN
		ENERGY=6.00
		SSD=950.00
		WEDGE=None
		FIELD_INPLANE=100.00
		FIELD_CROSSPLANE=100.00
		FIELD_TYPE=RECTANGULAR
		GANTRY=0.00
		GANTRY_UPRIGHT_POSITION=0
		GANTRY_ROTATION=CW
		COLL_ANGLE=90.00
		COLL_OFFSET_INPLANE=0.00
		COLL_OFFSET_CROSSPLANE=0.00
		SCAN_DEVICE=STARCHECK
		ELECTROMETER=2D_ARRAY_INTERFACE
		DETECTOR=STARCHECK
		SCAN_CURVETYPE=CROSSPLANE_PROFILE
		SCAN_DEPTH=0.00
		SCAN_OFFAXIS_INPLANE=50.00
		SCAN_ANGLE=0.00
		SCAN_DIAGONAL=NOT_DIAGONAL
		MEAS_PRESET=TIME_PRESET
		MEAS_TIME=10.000
		MEAS_UNIT=GY
		PRESSURE=1013.25
		TEMPERATURE=20.00
		NORM_TEMPERATURE=20.00
		CORRECTION_FACTOR=1.0000
		CORRECTIONS=AIR_DENSITY_CORR;
		BEGIN_DATA
			-30.00		483.52E-03
			-15.00		498.51E-03
			15.00		471.87E-03
			30.00		475.08E-03
		END_DATA
	END_SCAN  5
	BEGIN_SCAN  6
		TASK_NAME=MODE_INTERVAL
		PROGRAM=BeamAdjust 1.2
		MEAS_DATE=07-Oct-2010 14:23:54
		LINAC=A4
		MODALITY=X
		INPLANE_AXIS_DIR=TARGET_GUN
		CROSSPLANE_AXIS_DIR=LEFT_RIGHT
		DEPTH_AXIS_DIR=UP_DOWN
		ENERGY=6.00
		SSD=950.00
		WEDGE=None
		FIELD_INPLANE=100.00
		FIELD_CROSSPLANE=100.00
		FIELD_TYPE=RECTANGULAR
		GANTRY=0.00
		GANTRY_UPRIGHT_POSITION=0
		GANTRY_ROTATION=CW
		COLL_ANGLE=90.00
		COLL_OFFSET_INPLANE=0.00
		COLL_OFFSET_CROSSPLANE=0.00
		SCAN_DEVICE=STARCHECK
		ELECTROMETER=2D_ARRAY_INTERFACE
		DETECTOR=STARCHECK
		SCAN_CURVETYPE=CROSSPLANE_PROFILE
		SCAN_DEPTH=0.00
		SCAN_OFFAXIS_INPLANE=100.00
		SCAN_ANGLE=0.00
		SCAN_DIAGONAL=NOT_DIAGONAL
		MEAS_PRESET=TIME_PRESET
		MEAS_TIME=10.000
		MEAS_UNIT=GY
		PRESSURE=1013.25
		TEMPERATURE=20.00
		NORM_TEMPERATURE=20.00
		CORRECTION_FACTOR=1.0000
		CORRECTIONS=AIR_DENSITY_CORR;
		BEGIN_DATA
			-60.00		10.704E-03
			-30.00		15.838E-03
			30.00		15.754E-03
			60.00		9.6572E-03
		END_DATA
	END_SCAN  6
	BEGIN_SCAN  7
		TASK_NAME=MODE_INTERVAL
		PROGRAM=BeamAdjust 1.2
		MEAS_DATE=07-Oct-2010 14:23:54
		LINAC=A4
		MODALITY=X
		INPLANE_AXIS_DIR=TARGET_GUN
		CROSSPLANE_AXIS_DIR=LEFT_RIGHT
		DEPTH_AXIS_DIR=UP_DOWN
		ENERGY=6.00
		SSD=950.00
		WEDGE=None
		FIELD_INPLANE=100.00
		FIELD_CROSSPLANE=100.00
		FIELD_TYPE=RECTANGULAR
		GANTRY=0.00
		GANTRY_UPRIGHT_POSITION=0
		GANTRY_ROTATION=CW
		COLL_ANGLE=90.00
		COLL_OFFSET_INPLANE=0.00
		COLL_OFFSET_CROSSPLANE=0.00
		SCAN_DEVICE=STARCHECK
		ELECTROMETER=2D_ARRAY_INTERFACE
		DETECTOR=STARCHECK
		SCAN_CURVETYPE=CROSSPLANE_PROFILE
		SCAN_DEPTH=0.00
		SCAN_OFFAXIS_INPLANE=130.00
		SCAN_ANGLE=0.00
		SCAN_DIAGONAL=NOT_DIAGONAL
		MEAS_PRESET=TIME_PRESET
		MEAS_TIME=10.000
		MEAS_UNIT=GY
		PRESSURE=1013.25
		TEMPERATURE=20.00
		NORM_TEMPERATURE=20.00
		CORRECTION_FACTOR=1.0000
		CORRECTIONS=AIR_DENSITY_CORR;
		BEGIN_DATA
			-130.00		2.1959E-03
			-80.00		4.0021E-03
			-40.00		7.6294E-03
			40.00		7.4726E-03
			80.00		4.3155E-03
			130.00		2.1481E-03
		END_DATA
	END_SCAN  7
	BEGIN_SCAN  8
		TASK_NAME=MODE_INTERVAL
		PROGRAM=BeamAdjust 1.2
		MEAS_DATE=07-Oct-2010 14:23:54
		LINAC=A4
		MODALITY=X
		INPLANE_AXIS_DIR=TARGET_GUN
		CROSSPLANE_AXIS_DIR=LEFT_RIGHT
		DEPTH_AXIS_DIR=UP_DOWN
		ENERGY=6.00
		SSD=950.00
		WEDGE=None
		FIELD_INPLANE=100.00
		FIELD_CROSSPLANE=100.00
		FIELD_TYPE=RECTANGULAR
		GANTRY=0.00
		GANTRY_UPRIGHT_POSITION=0
		GANTRY_ROTATION=CW
		COLL_ANGLE=90.00
		COLL_OFFSET_INPLANE=0.00
		COLL_OFFSET_CROSSPLANE=0.00
		SCAN_DEVICE=STARCHECK
		ELECTROMETER=2D_ARRAY_INTERFACE
		DETECTOR=STARCHECK
		SCAN_CURVETYPE=INPLANE_PROFILE
		SCAN_DEPTH=0.00
		SCAN_OFFAXIS_CROSSPLANE=-130.00
		SCAN_ANGLE=0.00
		SCAN_DIAGONAL=NOT_DIAGONAL
		MEAS_PRESET=TIME_PRESET
		MEAS_TIME=10.000
		MEAS_UNIT=GY
		PRESSURE=1013.25
		TEMPERATURE=20.00
		NORM_TEMPERATURE=20.00
		CORRECTION_FACTOR=1.0000
		CORRECTIONS=AIR_DENSITY_CORR;
		BEGIN_DATA
			-130.00		2.1227E-03
			-125.00		2.8159E-03
			-120.00		2.5301E-03
			-115.00		3.3790E-03
			-110.00		2.9546E-03
			-105.00		3.5666E-03
			-100.00		3.7535E-03
			-95.00		4.3723E-03
			-90.00		4.5252E-03
			-85.00		3.9863E-03
			-80.00		4.2594E-03
			-75.00		5.1487E-03
			-70.00		4.8689E-03
			-65.00		4.5996E-03
			-60.00		5.3177E-03
			-55.00		5.7968E-03
			-50.00		4.0907E-03
			-45.00		4.6403E-03
			-40.00		4.5253E-03
			-35.00		5.4825E-03
			-30.00		5.0705E-03
			-25.00		5.2128E-03
			-20.00		4.7448E-03
			-15.00		5.2171E-03
			-10.00		5.1696E-03
			-5.00		6.3462E-03
			0.00		5.9113E-03
			5.00		6.3406E-03
			10.00		5.8404E-03
			15.00		5.4039E-03
			20.00		5.9234E-03
			25.00		5.0970E-03
			30.00		5.5483E-03
			35.00		5.3914E-03
			40.00		5.1323E-03
			45.00		4.7222E-03
			50.00		4.7706E-03
			55.00		4.7113E-03
			60.00		4.5776E-03
			65.00		4.3347E-03
			70.00		3.7591E-03
			75.00		4.1710E-03
			80.00		3.4393E-03
			85.00		3.6633E-03
			90.00		3.2351E-03
			95.00		3.3146E-03
			100.00		3.0355E-03
			105.00		2.3829E-03
			110.00		2.6052E-03
			115.00		2.1613E-03
			120.00		2.4293E-03
			125.00		2.4386E-03
			130.00		2.1959E-03
		END_DATA
	END_SCAN  8
	BEGIN_SCAN  9
		TASK_NAME=MODE_INTERVAL
		PROGRAM=BeamAdjust 1.2
		MEAS_DATE=07-Oct-2010 14:23:54
		LINAC=A4
		MODALITY=X
		INPLANE_AXIS_DIR=TARGET_GUN
		CROSSPLANE_AXIS_DIR=LEFT_RIGHT
		DEPTH_AXIS_DIR=UP_DOWN
		ENERGY=6.00
		SSD=950.00
		WEDGE=None
		FIELD_INPLANE=100.00
		FIELD_CROSSPLANE=100.00
		FIELD_TYPE=RECTANGULAR
		GANTRY=0.00
		GANTRY_UPRIGHT_POSITION=0
		GANTRY_ROTATION=CW
		COLL_ANGLE=90.00
		COLL_OFFSET_INPLANE=0.00
		COLL_OFFSET_CROSSPLANE=0.00
		SCAN_DEVICE=STARCHECK
		ELECTROMETER=2D_ARRAY_INTERFACE
		DETECTOR=STARCHECK
		SCAN_CURVETYPE=INPLANE_PROFILE
		SCAN_DEPTH=0.00
		SCAN_OFFAXIS_CROSSPLANE=-100.00
		SCAN_ANGLE=0.00
		SCAN_DIAGONAL=NOT_DIAGONAL
		MEAS_PRESET=TIME_PRESET
		MEAS_TIME=10.000
		MEAS_UNIT=GY
		PRESSURE=1013.25
		TEMPERATURE=20.00
		NORM_TEMPERATURE=20.00
		CORRECTION_FACTOR=1.0000
		CORRECTIONS=AIR_DENSITY_CORR;
		BEGIN_DATA
			-60.00		8.1611E-03
			-30.00		10.348E-03
			30.00		10.289E-03
			60.00		7.8739E-03
		END_DATA
	END_SCAN  9
	BEGIN_SCAN  10
		TASK_NAME=MODE_INTERVAL
		PROGRAM=BeamAdjust 1.2
		MEAS_DATE=07-Oct-2010 14:23:54
		LINAC=A4
		MODALITY=X
		INPLANE_AXIS_DIR=TARGET_GUN
		CROSSPLANE_AXIS_DIR=LEFT_RIGHT
		DEPTH_AXIS_DIR=UP_DOWN
		ENERGY=6.00
		SSD=950.00
		WEDGE=None
		FIELD_INPLANE=100.00
		FIELD_CROSSPLANE=100.00
		FIELD_TYPE=RECTANGULAR
		GANTRY=0.00
		GANTRY_UPRIGHT_POSITION=0
		GANTRY_ROTATION=CW
		COLL_ANGLE=90.00
		COLL_OFFSET_INPLANE=0.00
		COLL_OFFSET_CROSSPLANE=0.00
		SCAN_DEVICE=STARCHECK
		ELECTROMETER=2D_ARRAY_INTERFACE
		DETECTOR=STARCHECK
		SCAN_CURVETYPE=INPLANE_PROFILE
		SCAN_DEPTH=0.00
		SCAN_OFFAXIS_CROSSPLANE=-50.00
		SCAN_ANGLE=0.00
		SCAN_DIAGONAL=NOT_DIAGONAL
		MEAS_PRESET=TIME_PRESET
		MEAS_TIME=10.000
		MEAS_UNIT=GY
		PRESSURE=1013.25
		TEMPERATURE=20.00
		NORM_TEMPERATURE=20.00
		CORRECTION_FACTOR=1.0000
		CORRECTIONS=AIR_DENSITY_CORR;
		BEGIN_DATA
			-30.00		394.46E-03
			-15.00		392.18E-03
			15.00		382.61E-03
			30.00		373.15E-03
		END_DATA
	END_SCAN  10
	BEGIN_SCAN  11
		TASK_NAME=MODE_INTERVAL
		PROGRAM=BeamAdjust 1.2
		MEAS_DATE=07-Oct-2010 14:23:54
		LINAC=A4
		MODALITY=X
		INPLANE_AXIS_DIR=TARGET_GUN
		CROSSPLANE_AXIS_DIR=LEFT_RIGHT
		DEPTH_AXIS_DIR=UP_DOWN
		ENERGY=6.00
		SSD=950.00
		WEDGE=None
		FIELD_INPLANE=100.00
		FIELD_CROSSPLANE=100.00
		FIELD_TYPE=RECTANGULAR
		GANTRY=0.00
		GANTRY_UPRIGHT_POSITION=0
		GANTRY_ROTATION=CW
		COLL_ANGLE=90.00
		COLL_OFFSET_INPLANE=0.00
		COLL_OFFSET_CROSSPLANE=0.00
		SCAN_DEVICE=STARCHECK
		ELECTROMETER=2D_ARRAY_INTERFACE
		DETECTOR=STARCHECK
		SCAN_CURVETYPE=INPLANE_PROFILE
		SCAN_DEPTH=0.00
		SCAN_OFFAXIS_CROSSPLANE=0.00
		SCAN_ANGLE=0.00
		SCAN_DIAGONAL=NOT_DIAGONAL
		MEAS_PRESET=TIME_PRESET
		MEAS_TIME=10.000
		MEAS_UNIT=GY
		PRESSURE=1013.25
		TEMPERATURE=20.00
		NORM_TEMPERATURE=20.00
		CORRECTION_FACTOR=1.0000
		CORRECTIONS=AIR_DENSITY_CORR;
		BEGIN_DATA
			-126.00		8.4410E-03
			-123.00		8.3985E-03
			-120.00		10.215E-03
			-117.00		10.811E-03
			-114.00		11.257E-03
			-111.00		12.038E-03
			-108.00		12.757E-03
			-105.00		13.862E-03
			-102.00		15.021E-03
			-99.00		15.712E-03
			-96.00		16.823E-03
			-93.00		19.225E-03
			-90.00		20.178E-03
			-87.00		21.788E-03
			-84.00		23.927E-03
			-81.00		25.861E-03
			-78.00		28.860E-03
			-75.00		30.444E-03
			-72.00		33.506E-03
			-69.00		36.793E-03
			-66.00		40.897E-03
			-63.00		46.349E-03
			-60.00		53.075E-03
			-57.00		64.288E-03
			-54.00		84.925E-03
			-51.00		141.64E-03
			-48.00		332.59E-03
			-45.00		569.15E-03
			-42.00		626.66E-03
			-39.00		645.62E-03
			-36.00		654.38E-03
			-33.00		659.71E-03
			-30.00		664.23E-03
			-27.00		666.14E-03
			-24.00		666.21E-03
			-21.00		664.86E-03
			-18.00		670.85E-03
			-15.00		669.23E-03
			-12.00		672.26E-03
			-9.00		673.62E-03
			-6.00		670.63E-03
			0.00		669.32E-03
			6.00		673.19E-03
			9.00		672.47E-03
			12.00		673.40E-03
			15.00		672.84E-03
			18.00		667.48E-03
			21.00		666.20E-03
			24.00		663.03E-03
			27.00		664.76E-03
			30.00		661.47E-03
			33.00		659.88E-03
			36.00		659.22E-03
			39.00		650.12E-03
			42.00		644.09E-03
			45.00		631.66E-03
			48.00		588.26E-03
			51.00		410.38E-03
			54.00		173.82E-03
			57.00		94.814E-03
			60.00		68.146E-03
			63.00		54.798E-03
			66.00		48.325E-03
			69.00		41.985E-03
			72.00		37.798E-03
			75.00		34.134E-03
			78.00		30.034E-03
			81.00		28.026E-03
			84.00		25.770E-03
			87.00		23.628E-03
			90.00		22.024E-03
			93.00		19.929E-03
			96.00		18.760E-03
			99.00		17.480E-03
			102.00		15.310E-03
			105.00		14.396E-03
			108.00		13.699E-03
			111.00		12.491E-03
			114.00		12.026E-03
			117.00		10.560E-03
			120.00		10.567E-03
			123.00		9.1392E-03
			126.00		8.6588E-03
		END_DATA
	END_SCAN  11
	BEGIN_SCAN  12
		TASK_NAME=MODE_INTERVAL
		PROGRAM=BeamAdjust 1.2
		MEAS_DATE=07-Oct-2010 14:23:54
		LINAC=A4
		MODALITY=X
		INPLANE_AXIS_DIR=TARGET_GUN
		CROSSPLANE_AXIS_DIR=LEFT_RIGHT
		DEPTH_AXIS_DIR=UP_DOWN
		ENERGY=6.00
		SSD=950.00
		WEDGE=None
		FIELD_INPLANE=100.00
		FIELD_CROSSPLANE=100.00
		FIELD_TYPE=RECTANGULAR
		GANTRY=0.00
		GANTRY_UPRIGHT_POSITION=0
		GANTRY_ROTATION=CW
		COLL_ANGLE=90.00
		COLL_OFFSET_INPLANE=0.00
		COLL_OFFSET_CROSSPLANE=0.00
		SCAN_DEVICE=STARCHECK
		ELECTROMETER=2D_ARRAY_INTERFACE
		DETECTOR=STARCHECK
		SCAN_CURVETYPE=INPLANE_PROFILE
		SCAN_DEPTH=0.00
		SCAN_OFFAXIS_CROSSPLANE=50.00
		SCAN_ANGLE=0.00
		SCAN_DIAGONAL=NOT_DIAGONAL
		MEAS_PRESET=TIME_PRESET
		MEAS_TIME=10.000
		MEAS_UNIT=GY
		PRESSURE=1013.25
		TEMPERATURE=20.00
		NORM_TEMPERATURE=20.00
		CORRECTION_FACTOR=1.0000
		CORRECTIONS=AIR_DENSITY_CORR;
		BEGIN_DATA
			-30.00		327.93E-03
			-15.00		338.13E-03
			15.00		346.92E-03
			30.00		348.83E-03
		END_DATA
	END_SCAN  12
	BEGIN_SCAN  13
		TASK_NAME=MODE_INTERVAL
		PROGRAM=BeamAdjust 1.2
		MEAS_DATE=07-Oct-2010 14:23:54
		LINAC=A4
		MODALITY=X
		INPLANE_AXIS_DIR=TARGET_GUN
		CROSSPLANE_AXIS_DIR=LEFT_RIGHT
		DEPTH_AXIS_DIR=UP_DOWN
		ENERGY=6.00
		SSD=950.00
		WEDGE=None
		FIELD_INPLANE=100.00
		FIELD_CROSSPLANE=100.00
		FIELD_TYPE=RECTANGULAR
		GANTRY=0.00
		GANTRY_UPRIGHT_POSITION=0
		GANTRY_ROTATION=CW
		COLL_ANGLE=90.00
		COLL_OFFSET_INPLANE=0.00
		COLL_OFFSET_CROSSPLANE=0.00
		SCAN_DEVICE=STARCHECK
		ELECTROMETER=2D_ARRAY_INTERFACE
		DETECTOR=STARCHECK
		SCAN_CURVETYPE=INPLANE_PROFILE
		SCAN_DEPTH=0.00
		SCAN_OFFAXIS_CROSSPLANE=100.00
		SCAN_ANGLE=0.00
		SCAN_DIAGONAL=NOT_DIAGONAL
		MEAS_PRESET=TIME_PRESET
		MEAS_TIME=10.000
		MEAS_UNIT=GY
		PRESSURE=1013.25
		TEMPERATURE=20.00
		NORM_TEMPERATURE=20.00
		CORRECTION_FACTOR=1.0000
		CORRECTIONS=AIR_DENSITY_CORR;
		BEGIN_DATA
			-60.00		7.9487E-03
			-30.00		9.8359E-03
			30.00		10.734E-03
			60.00		7.1955E-03
		END_DATA
	END_SCAN  13
	BEGIN_SCAN  14
		TASK_NAME=MODE_INTERVAL
		PROGRAM=BeamAdjust 1.2
		MEAS_DATE=07-Oct-2010 14:23:54
		LINAC=A4
		MODALITY=X
		INPLANE_AXIS_DIR=TARGET_GUN
		CROSSPLANE_AXIS_DIR=LEFT_RIGHT
		DEPTH_AXIS_DIR=UP_DOWN
		ENERGY=6.00
		SSD=950.00
		WEDGE=None
		FIELD_INPLANE=100.00
		FIELD_CROSSPLANE=100.00
		FIELD_TYPE=RECTANGULAR
		GANTRY=0.00
		GANTRY_UPRIGHT_POSITION=0
		GANTRY_ROTATION=CW
		COLL_ANGLE=90.00
		COLL_OFFSET_INPLANE=0.00
		COLL_OFFSET_CROSSPLANE=0.00
		SCAN_DEVICE=STARCHECK
		ELECTROMETER=2D_ARRAY_INTERFACE
		DETECTOR=STARCHECK
		SCAN_CURVETYPE=INPLANE_PROFILE
		SCAN_DEPTH=0.00
		SCAN_OFFAXIS_CROSSPLANE=130.00
		SCAN_ANGLE=0.00
		SCAN_DIAGONAL=NOT_DIAGONAL
		MEAS_PRESET=TIME_PRESET
		MEAS_TIME=10.000
		MEAS_UNIT=GY
		PRESSURE=1013.25
		TEMPERATURE=20.00
		NORM_TEMPERATURE=20.00
		CORRECTION_FACTOR=1.0000
		CORRECTIONS=AIR_DENSITY_CORR;
		BEGIN_DATA
			-130.00		1.7773E-03
			-125.00		2.3653E-03
			-120.00		2.2216E-03
			-115.00		2.5522E-03
			-110.00		2.2619E-03
			-105.00		2.6940E-03
			-100.00		2.8649E-03
			-95.00		2.7522E-03
			-90.00		2.6880E-03
			-85.00		3.2461E-03
			-80.00		3.5987E-03
			-75.00		3.1903E-03
			-70.00		3.9352E-03
			-65.00		4.4602E-03
			-60.00		4.2912E-03
			-55.00		4.1539E-03
			-50.00		4.3742E-03
			-45.00		4.5482E-03
			-40.00		4.7339E-03
			-35.00		5.0687E-03
			-30.00		5.1805E-03
			-25.00		4.8823E-03
			-20.00		5.3945E-03
			-15.00		5.1169E-03
			-10.00		4.5765E-03
			-5.00		5.8628E-03
			0.00		5.9112E-03
			5.00		6.4220E-03
			10.00		5.5291E-03
			15.00		5.1631E-03
			20.00		5.3749E-03
			25.00		5.4124E-03
			30.00		4.8484E-03
			35.00		5.3663E-03
			40.00		5.4945E-03
			45.00		5.2468E-03
			50.00		5.1185E-03
			55.00		5.1527E-03
			60.00		4.5899E-03
			65.00		4.3225E-03
			70.00		4.0744E-03
			75.00		4.7898E-03
			80.00		4.1348E-03
			85.00		3.8095E-03
			90.00		3.2824E-03
			95.00		3.7779E-03
			100.00		3.4368E-03
			105.00		3.1416E-03
			110.00		2.7034E-03
			115.00		2.8507E-03
			120.00		2.7330E-03
			125.00		2.5411E-03
			130.00		2.1481E-03
		END_DATA
	END_SCAN  14
	BEGIN_SCAN  15
		TASK_NAME=MODE_INTERVAL
		PROGRAM=BeamAdjust 1.2
		MEAS_DATE=07-Oct-2010 14:23:54
		LINAC=A4
		MODALITY=X
		INPLANE_AXIS_DIR=TARGET_GUN
		CROSSPLANE_AXIS_DIR=LEFT_RIGHT
		DEPTH_AXIS_DIR=UP_DOWN
		ENERGY=6.00
		SSD=950.00
		WEDGE=None
		FIELD_INPLANE=100.00
		FIELD_CROSSPLANE=100.00
		FIELD_TYPE=RECTANGULAR
		GANTRY=0.00
		GANTRY_UPRIGHT_POSITION=0
		GANTRY_ROTATION=CW
		COLL_ANGLE=90.00
		COLL_OFFSET_INPLANE=0.00
		COLL_OFFSET_CROSSPLANE=0.00
		SCAN_DEVICE=STARCHECK
		ELECTROMETER=2D_ARRAY_INTERFACE
		DETECTOR=STARCHECK
		SCAN_CURVETYPE=INPLANE_PROFILE
		SCAN_DEPTH=0.00
		SCAN_OFFAXIS_CROSSPLANE=0.00
		SCAN_ANGLE=0.00
		SCAN_DIAGONAL=FIRST_DIAGONAL
		MEAS_PRESET=TIME_PRESET
		MEAS_TIME=10.000
		MEAS_UNIT=GY
		PRESSURE=1013.25
		TEMPERATURE=20.00
		NORM_TEMPERATURE=20.00
		CORRECTION_FACTOR=1.0000
		CORRECTIONS=AIR_DENSITY_CORR;
		BEGIN_DATA
			-172.40		2.9477E-03
			-169.40		2.5249E-03
			-166.40		3.9249E-03
			-163.40		3.9689E-03
			-160.40		3.5924E-03
			-157.40		3.9500E-03
			-154.40		3.6193E-03
			-151.40		3.7966E-03
			-148.40		4.4818E-03
			-145.40		4.7310E-03
			-142.40		5.4163E-03
			-139.40		5.7178E-03
			-136.40		5.6565E-03
			-133.40		6.7491E-03
			-130.40		6.7442E-03
			-127.40		7.3719E-03
			-124.40		7.8038E-03
			-121.40		8.7287E-03
			-118.40		9.7782E-03
			-115.40		9.7693E-03
			-112.40		10.950E-03
			-109.40		11.965E-03
			-106.40		12.948E-03
			-103.40		13.761E-03
			-100.40		14.686E-03
			-97.40		17.178E-03
			-94.40		18.671E-03
			-91.40		20.845E-03
			-88.40		23.577E-03
			-85.40		25.945E-03
			-82.40		29.768E-03
			-79.40		34.988E-03
			-76.40		41.903E-03
			-73.40		61.141E-03
			-70.40		119.99E-03
			-67.40		287.94E-03
			-64.40		469.93E-03
			-61.40		571.40E-03
			-58.40		611.89E-03
			-55.40		630.11E-03
			-52.40		640.34E-03
			-49.40		647.07E-03
			-46.40		650.18E-03
			-43.40		653.62E-03
			-40.40		656.59E-03
			-37.40		661.96E-03
			-34.40		661.53E-03
			-31.40		663.63E-03
			-28.40		662.53E-03
			-25.40		665.48E-03
			-22.40		665.49E-03
			-19.40		665.80E-03
			-16.40		669.04E-03
			-13.40		673.13E-03
			0.00		669.32E-03
			13.40		674.63E-03
			16.40		670.04E-03
			19.40		669.71E-03
			22.40		667.96E-03
			25.40		667.64E-03
			28.40		666.44E-03
			31.40		663.85E-03
			34.40		661.48E-03
			37.40		663.60E-03
			40.40		661.56E-03
			43.40		658.26E-03
			46.40		656.89E-03
			49.40		651.60E-03
			52.40		648.38E-03
			55.40		637.70E-03
			58.40		627.98E-03
			61.40		608.23E-03
			64.40		560.75E-03
			67.40		437.16E-03
			70.40		229.78E-03
			73.40		93.839E-03
			76.40		52.767E-03
			79.40		39.525E-03
			82.40		32.276E-03
			85.40		27.836E-03
			88.40		25.268E-03
			91.40		21.564E-03
			94.40		20.114E-03
			97.40		17.692E-03
			100.40		16.347E-03
			103.40		15.204E-03
			106.40		13.485E-03
			109.40		13.025E-03
			112.40		10.784E-03
			115.40		10.050E-03
			118.40		9.2256E-03
			121.40		8.4112E-03
			124.40		7.9076E-03
			127.40		7.7977E-03
			130.40		7.0067E-03
			133.40		6.4907E-03
			136.40		5.1528E-03
			139.40		5.1195E-03
			142.40		4.4710E-03
			145.40		4.3775E-03
			148.40		4.6577E-03
			151.40		3.9244E-03
			154.40		3.9838E-03
			157.40		3.1495E-03
			160.40		2.4667E-03
			163.40		2.4949E-03
			166.40		2.5985E-03
			169.40		2.5000E-03
			172.40		2.5250E-03
		END_DATA
	END_SCAN  15
	BEGIN_SCAN  16
		TASK_NAME=MODE_INTERVAL
		PROGRAM=BeamAdjust 1.2
		MEAS_DATE=07-Oct-2010 14:23:54
		LINAC=A4
		MODALITY=X
		INPLANE_AXIS_DIR=GUN_TARGET
		CROSSPLANE_AXIS_DIR=LEFT_RIGHT
		DEPTH_AXIS_DIR=UP_DOWN
		ENERGY=6.00
		SSD=950.00
		WEDGE=None
		FIELD_INPLANE=100.00
		FIELD_CROSSPLANE=100.00
		FIELD_TYPE=RECTANGULAR
		GANTRY=0.00
		GANTRY_UPRIGHT_POSITION=0
		GANTRY_ROTATION=CW
		COLL_ANGLE=90.00
		COLL_OFFSET_INPLANE=0.00
		COLL_OFFSET_CROSSPLANE=0.00
		SCAN_DEVICE=STARCHECK
		ELECTROMETER=2D_ARRAY_INTERFACE
		DETECTOR=STARCHECK
		SCAN_CURVETYPE=INPLANE_PROFILE
		SCAN_DEPTH=0.00
		SCAN_OFFAXIS_CROSSPLANE=0.00
		SCAN_ANGLE=0.00
		SCAN_DIAGONAL=SECOND_DIAGONAL
		MEAS_PRESET=TIME_PRESET
		MEAS_TIME=10.000
		MEAS_UNIT=GY
		PRESSURE=1013.25
		TEMPERATURE=20.00
		NORM_TEMPERATURE=20.00
		CORRECTION_FACTOR=1.0000
		CORRECTIONS=AIR_DENSITY_CORR;
		BEGIN_DATA
			-172.40		2.4518E-03
			-169.40		2.8770E-03
			-166.40		2.7058E-03
			-163.40		2.7684E-03
			-160.40		2.9014E-03
			-157.40		3.3345E-03
			-154.40		3.5422E-03
			-151.40		3.9342E-03
			-148.40		4.2168E-03
			-145.40		4.3396E-03
			-142.40		5.4601E-03
			-139.40		4.9965E-03
			-136.40		5.6250E-03
			-133.40		6.1407E-03
			-130.40		6.9018E-03
			-127.40		7.0756E-03
			-124.40		8.1310E-03
			-121.40		8.6669E-03
			-118.40		9.1393E-03
			-115.40		9.7302E-03
			-112.40		10.179E-03
			-109.40		11.866E-03
			-106.40		12.599E-03
			-103.40		13.754E-03
			-100.40		15.968E-03
			-97.40		16.532E-03
			-94.40		18.245E-03
			-91.40		20.254E-03
			-88.40		21.990E-03
			-85.40		24.764E-03
			-82.40		28.559E-03
			-79.40		32.902E-03
			-76.40		40.519E-03
			-73.40		55.046E-03
			-70.40		98.936E-03
			-67.40		245.82E-03
			-64.40		448.17E-03
			-61.40		567.34E-03
			-58.40		614.20E-03
			-55.40		632.26E-03
			-52.40		645.84E-03
			-49.40		652.22E-03
			-46.40		656.10E-03
			-43.40		659.49E-03
			-40.40		661.85E-03
			-37.40		665.20E-03
			-34.40		665.31E-03
			-31.40		666.57E-03
			-28.40		668.93E-03
			-25.40		668.12E-03
			-22.40		666.37E-03
			-19.40		669.45E-03
			-16.40		671.34E-03
			-13.40		673.96E-03
			0.00		669.32E-03
			13.40		673.60E-03
			16.40		671.32E-03
			19.40		667.22E-03
			22.40		664.73E-03
			25.40		663.80E-03
			28.40		663.47E-03
			31.40		661.58E-03
			34.40		658.97E-03
			37.40		658.66E-03
			40.40		657.14E-03
			43.40		655.62E-03
			46.40		654.08E-03
			49.40		650.49E-03
			52.40		642.73E-03
			55.40		635.59E-03
			58.40		628.19E-03
			61.40		608.94E-03
			64.40		566.83E-03
			67.40		454.10E-03
			70.40		249.32E-03
			73.40		99.826E-03
			76.40		54.610E-03
			79.40		39.694E-03
			82.40		33.684E-03
			85.40		28.753E-03
			88.40		25.848E-03
			91.40		22.944E-03
			94.40		20.489E-03
			97.40		18.628E-03
			100.40		15.964E-03
			103.40		14.551E-03
			106.40		13.710E-03
			109.40		12.456E-03
			112.40		11.540E-03
			115.40		10.584E-03
			118.40		9.5650E-03
			121.40		8.8329E-03
			124.40		7.9300E-03
			127.40		7.4776E-03
			130.40		7.9101E-03
			133.40		6.5790E-03
			136.40		6.1242E-03
			139.40		5.9282E-03
			142.40		5.6310E-03
			145.40		5.3908E-03
			148.40		4.6772E-03
			151.40		3.9501E-03
			154.40		4.1310E-03
			157.40		3.8383E-03
			160.40		3.7483E-03
			163.40		3.6211E-03
			166.40		3.6775E-03
			169.40		2.8042E-03
			172.40		2.8655E-03
		END_DATA
	END_SCAN  16
END_SCAN_DATA
