BEGIN_SCAN_DATA
	FORMAT=CC-Export V1.9                  
	FILE_CREATION_DATE=07-Oct-2010 14:24:24
	LAST_MODIFIED=07-Oct-2010 14:24:24
	BEGIN_SCAN  1
		TASK_NAME=MODE_INTERVAL
		PROGRAM=BeamAdjust 1.2
		MEAS_DATE=07-Oct-2010 14:24:24
		LINAC=A4
		MODALITY=X
		INPLANE_AXIS_DIR=TARGET_GUN
		CROSSPLANE_AXIS_DIR=LEFT_RIGHT
		DEPTH_AXIS_DIR=UP_DOWN
		ENERGY=6.00
		SSD=950.00
		WEDGE=None
		FIELD_INPLANE=100.00
		FIELD_CROSSPLANE=100.00
		FIELD_TYPE=RECTANGULAR
		GANTRY=0.00
		GANTRY_UPRIGHT_POSITION=0
		GANTRY_ROTATION=CW
		COLL_ANGLE=90.00
		COLL_OFFSET_INPLANE=0.00
		COLL_OFFSET_CROSSPLANE=0.00
		SCAN_DEVICE=STARCHECK
		ELECTROMETER=2D_ARRAY_INTERFACE
		DETECTOR=STARCHECK
		SCAN_CURVETYPE=CROSSPLANE_PROFILE
		SCAN_DEPTH=0.00
		SCAN_OFFAXIS_INPLANE=-130.00
		SCAN_ANGLE=0.00
		SCAN_DIAGONAL=NOT_DIAGONAL
		MEAS_PRESET=TIME_PRESET
		MEAS_TIME=10.000
		MEAS_UNIT=GY
		PRESSURE=1013.25
		TEMPERATURE=20.00
		NORM_TEMPERATURE=20.00
		CORRECTION_FACTOR=1.0000
		CORRECTIONS=AIR_DENSITY_CORR;
		BEGIN_DATA
			-130.00		2.3708E-03
			-80.00		3.8639E-03
			-40.00		7.0435E-03
			40.00		6.4137E-03
			80.00		4.1068E-03
			130.00		2.0302E-03
		END_DATA
	END_SCAN  1
	BEGIN_SCAN  2
		TASK_NAME=MODE_INTERVAL
		PROGRAM=BeamAdjust 1.2
		MEAS_DATE=07-Oct-2010 14:24:24
		LINAC=A4
		MODALITY=X
		INPLANE_AXIS_DIR=TARGET_GUN
		CROSSPLANE_AXIS_DIR=LEFT_RIGHT
		DEPTH_AXIS_DIR=UP_DOWN
		ENERGY=6.00
		SSD=950.00
		WEDGE=None
		FIELD_INPLANE=100.00
		FIELD_CROSSPLANE=100.00
		FIELD_TYPE=RECTANGULAR
		GANTRY=0.00
		GANTRY_UPRIGHT_POSITION=0
		GANTRY_ROTATION=CW
		COLL_ANGLE=90.00
		COLL_OFFSET_INPLANE=0.00
		COLL_OFFSET_CROSSPLANE=0.00
		SCAN_DEVICE=STARCHECK
		ELECTROMETER=2D_ARRAY_INTERFACE
		DETECTOR=STARCHECK
		SCAN_CURVETYPE=CROSSPLANE_PROFILE
		SCAN_DEPTH=0.00
		SCAN_OFFAXIS_INPLANE=-100.00
		SCAN_ANGLE=0.00
		SCAN_DIAGONAL=NOT_DIAGONAL
		MEAS_PRESET=TIME_PRESET
		MEAS_TIME=10.000
		MEAS_UNIT=GY
		PRESSURE=1013.25
		TEMPERATURE=20.00
		NORM_TEMPERATURE=20.00
		CORRECTION_FACTOR=1.0000
		CORRECTIONS=AIR_DENSITY_CORR;
		BEGIN_DATA
			-60.00		9.4326E-03
			-30.00		13.553E-03
			30.00		13.901E-03
			60.00		9.4081E-03
		END_DATA
	END_SCAN  2
	BEGIN_SCAN  3
		TASK_NAME=MODE_INTERVAL
		PROGRAM=BeamAdjust 1.2
		MEAS_DATE=07-Oct-2010 14:24:24
		LINAC=A4
		MODALITY=X
		INPLANE_AXIS_DIR=TARGET_GUN
		CROSSPLANE_AXIS_DIR=LEFT_RIGHT
		DEPTH_AXIS_DIR=UP_DOWN
		ENERGY=6.00
		SSD=950.00
		WEDGE=None
		FIELD_INPLANE=100.00
		FIELD_CROSSPLANE=100.00
		FIELD_TYPE=RECTANGULAR
		GANTRY=0.00
		GANTRY_UPRIGHT_POSITION=0
		GANTRY_ROTATION=CW
		COLL_ANGLE=90.00
		COLL_OFFSET_INPLANE=0.00
		COLL_OFFSET_CROSSPLANE=0.00
		SCAN_DEVICE=STARCHECK
		ELECTROMETER=2D_ARRAY_INTERFACE
		DETECTOR=STARCHECK
		SCAN_CURVETYPE=CROSSPLANE_PROFILE
		SCAN_DEPTH=0.00
		SCAN_OFFAXIS_INPLANE=-50.00
		SCAN_ANGLE=0.00
		SCAN_DIAGONAL=NOT_DIAGONAL
		MEAS_PRESET=TIME_PRESET
		MEAS_TIME=10.000
		MEAS_UNIT=GY
		PRESSURE=1013.25
		TEMPERATURE=20.00
		NORM_TEMPERATURE=20.00
		CORRECTION_FACTOR=1.0000
		CORRECTIONS=AIR_DENSITY_CORR;
		BEGIN_DATA
			-30.00		166.15E-03
			-15.00		145.84E-03
			15.00		158.11E-03
			30.00		164.51E-03
		END_DATA
	END_SCAN  3
	BEGIN_SCAN  4
		TASK_NAME=MODE_INTERVAL
		PROGRAM=BeamAdjust 1.2
		MEAS_DATE=07-Oct-2010 14:24:24
		LINAC=A4
		MODALITY=X
		INPLANE_AXIS_DIR=TARGET_GUN
		CROSSPLANE_AXIS_DIR=LEFT_RIGHT
		DEPTH_AXIS_DIR=UP_DOWN
		ENERGY=6.00
		SSD=950.00
		WEDGE=None
		FIELD_INPLANE=100.00
		FIELD_CROSSPLANE=100.00
		FIELD_TYPE=RECTANGULAR
		GANTRY=0.00
		GANTRY_UPRIGHT_POSITION=0
		GANTRY_ROTATION=CW
		COLL_ANGLE=90.00
		COLL_OFFSET_INPLANE=0.00
		COLL_OFFSET_CROSSPLANE=0.00
		SCAN_DEVICE=STARCHECK
		ELECTROMETER=2D_ARRAY_INTERFACE
		DETECTOR=STARCHECK
		SCAN_CURVETYPE=CROSSPLANE_PROFILE
		SCAN_DEPTH=0.00
		SCAN_OFFAXIS_INPLANE=0.00
		SCAN_ANGLE=0.00
		SCAN_DIAGONAL=NOT_DIAGONAL
		MEAS_PRESET=TIME_PRESET
		MEAS_TIME=10.000
		MEAS_UNIT=GY
		PRESSURE=1013.25
		TEMPERATURE=20.00
		NORM_TEMPERATURE=20.00
		CORRECTION_FACTOR=1.0000
		CORRECTIONS=AIR_DENSITY_CORR;
		BEGIN_DATA
			-126.00		6.7468E-03
			-123.00		7.0217E-03
			-120.00		8.0101E-03
			-117.00		8.7157E-03
			-114.00		8.8530E-03
			-111.00		9.2663E-03
			-108.00		10.305E-03
			-105.00		10.568E-03
			-102.00		12.051E-03
			-99.00		12.431E-03
			-96.00		13.924E-03
			-93.00		15.054E-03
			-90.00		16.365E-03
			-87.00		17.779E-03
			-84.00		20.302E-03
			-81.00		21.848E-03
			-78.00		24.020E-03
			-75.00		27.290E-03
			-72.00		29.730E-03
			-69.00		34.079E-03
			-66.00		38.723E-03
			-63.00		45.089E-03
			-60.00		54.401E-03
			-57.00		72.264E-03
			-54.00		113.31E-03
			-51.00		288.52E-03
			-48.00		553.69E-03
			-45.00		617.13E-03
			-42.00		635.78E-03
			-39.00		649.04E-03
			-36.00		654.95E-03
			-33.00		655.32E-03
			-30.00		657.27E-03
			-27.00		660.00E-03
			-24.00		662.31E-03
			-21.00		662.29E-03
			-18.00		668.37E-03
			-15.00		668.68E-03
			-12.00		667.97E-03
			-9.00		670.20E-03
			-6.00		669.41E-03
			0.00		667.88E-03
			6.00		671.29E-03
			9.00		670.96E-03
			12.00		668.36E-03
			15.00		668.02E-03
			18.00		666.60E-03
			21.00		665.43E-03
			24.00		661.52E-03
			27.00		665.42E-03
			30.00		663.78E-03
			33.00		661.46E-03
			36.00		657.74E-03
			39.00		651.91E-03
			42.00		640.18E-03
			45.00		615.74E-03
			48.00		527.93E-03
			51.00		235.02E-03
			54.00		102.30E-03
			57.00		68.616E-03
			60.00		53.285E-03
			63.00		43.975E-03
			66.00		37.741E-03
			69.00		32.853E-03
			72.00		29.527E-03
			75.00		26.367E-03
			78.00		23.661E-03
			81.00		21.762E-03
			84.00		19.505E-03
			87.00		17.540E-03
			90.00		16.513E-03
			93.00		14.956E-03
			96.00		13.331E-03
			99.00		13.233E-03
			102.00		11.714E-03
			105.00		10.981E-03
			108.00		10.389E-03
			111.00		9.0864E-03
			114.00		8.3661E-03
			117.00		8.0435E-03
			120.00		7.0022E-03
			123.00		7.0390E-03
			126.00		6.8799E-03
		END_DATA
	END_SCAN  4
	BEGIN_SCAN  5
		TASK_NAME=MODE_INTERVAL
		PROGRAM=BeamAdjust 1.2
		MEAS_DATE=07-Oct-2010 14:24:24
		LINAC=A4
		MODALITY=X
		INPLANE_AXIS_DIR=TARGET_GUN
		CROSSPLANE_AXIS_DIR=LEFT_RIGHT
		DEPTH_AXIS_DIR=UP_DOWN
		ENERGY=6.00
		SSD=950.00
		WEDGE=None
		FIELD_INPLANE=100.00
		FIELD_CROSSPLANE=100.00
		FIELD_TYPE=RECTANGULAR
		GANTRY=0.00
		GANTRY_UPRIGHT_POSITION=0
		GANTRY_ROTATION=CW
		COLL_ANGLE=90.00
		COLL_OFFSET_INPLANE=0.00
		COLL_OFFSET_CROSSPLANE=0.00
		SCAN_DEVICE=STARCHECK
		ELECTROMETER=2D_ARRAY_INTERFACE
		DETECTOR=STARCHECK
		SCAN_CURVETYPE=CROSSPLANE_PROFILE
		SCAN_DEPTH=0.00
		SCAN_OFFAXIS_INPLANE=50.00
		SCAN_ANGLE=0.00
		SCAN_DIAGONAL=NOT_DIAGONAL
		MEAS_PRESET=TIME_PRESET
		MEAS_TIME=10.000
		MEAS_UNIT=GY
		PRESSURE=1013.25
		TEMPERATURE=20.00
		NORM_TEMPERATURE=20.00
		CORRECTION_FACTOR=1.0000
		CORRECTIONS=AIR_DENSITY_CORR;
		BEGIN_DATA
			-30.00		505.51E-03
			-15.00		520.00E-03
			15.00		495.52E-03
			30.00		497.54E-03
		END_DATA
	END_SCAN  5
	BEGIN_SCAN  6
		TASK_NAME=MODE_INTERVAL
		PROGRAM=BeamAdjust 1.2
		MEAS_DATE=07-Oct-2010 14:24:24
		LINAC=A4
		MODALITY=X
		INPLANE_AXIS_DIR=TARGET_GUN
		CROSSPLANE_AXIS_DIR=LEFT_RIGHT
		DEPTH_AXIS_DIR=UP_DOWN
		ENERGY=6.00
		SSD=950.00
		WEDGE=None
		FIELD_INPLANE=100.00
		FIELD_CROSSPLANE=100.00
		FIELD_TYPE=RECTANGULAR
		GANTRY=0.00
		GANTRY_UPRIGHT_POSITION=0
		GANTRY_ROTATION=CW
		COLL_ANGLE=90.00
		COLL_OFFSET_INPLANE=0.00
		COLL_OFFSET_CROSSPLANE=0.00
		SCAN_DEVICE=STARCHECK
		ELECTROMETER=2D_ARRAY_INTERFACE
		DETECTOR=STARCHECK
		SCAN_CURVETYPE=CROSSPLANE_PROFILE
		SCAN_DEPTH=0.00
		SCAN_OFFAXIS_INPLANE=100.00
		SCAN_ANGLE=0.00
		SCAN_DIAGONAL=NOT_DIAGONAL
		MEAS_PRESET=TIME_PRESET
		MEAS_TIME=10.000
		MEAS_UNIT=GY
		PRESSURE=1013.25
		TEMPERATURE=20.00
		NORM_TEMPERATURE=20.00
		CORRECTION_FACTOR=1.0000
		CORRECTIONS=AIR_DENSITY_CORR;
		BEGIN_DATA
			-60.00		10.736E-03
			-30.00		15.874E-03
			30.00		16.545E-03
			60.00		9.3120E-03
		END_DATA
	END_SCAN  6
	BEGIN_SCAN  7
		TASK_NAME=MODE_INTERVAL
		PROGRAM=BeamAdjust 1.2
		MEAS_DATE=07-Oct-2010 14:24:24
		LINAC=A4
		MODALITY=X
		INPLANE_AXIS_DIR=TARGET_GUN
		CROSSPLANE_AXIS_DIR=LEFT_RIGHT
		DEPTH_AXIS_DIR=UP_DOWN
		ENERGY=6.00
		SSD=950.00
		WEDGE=None
		FIELD_INPLANE=100.00
		FIELD_CROSSPLANE=100.00
		FIELD_TYPE=RECTANGULAR
		GANTRY=0.00
		GANTRY_UPRIGHT_POSITION=0
		GANTRY_ROTATION=CW
		COLL_ANGLE=90.00
		COLL_OFFSET_INPLANE=0.00
		COLL_OFFSET_CROSSPLANE=0.00
		SCAN_DEVICE=STARCHECK
		ELECTROMETER=2D_ARRAY_INTERFACE
		DETECTOR=STARCHECK
		SCAN_CURVETYPE=CROSSPLANE_PROFILE
		SCAN_DEPTH=0.00
		SCAN_OFFAXIS_INPLANE=130.00
		SCAN_ANGLE=0.00
		SCAN_DIAGONAL=NOT_DIAGONAL
		MEAS_PRESET=TIME_PRESET
		MEAS_TIME=10.000
		MEAS_UNIT=GY
		PRESSURE=1013.25
		TEMPERATURE=20.00
		NORM_TEMPERATURE=20.00
		CORRECTION_FACTOR=1.0000
		CORRECTIONS=AIR_DENSITY_CORR;
		BEGIN_DATA
			-130.00		1.9573E-03
			-80.00		4.1612E-03
			-40.00		7.6623E-03
			40.00		7.4562E-03
			80.00		4.3645E-03
			130.00		2.0919E-03
		END_DATA
	END_SCAN  7
	BEGIN_SCAN  8
		TASK_NAME=MODE_INTERVAL
		PROGRAM=BeamAdjust 1.2
		MEAS_DATE=07-Oct-2010 14:24:24
		LINAC=A4
		MODALITY=X
		INPLANE_AXIS_DIR=TARGET_GUN
		CROSSPLANE_AXIS_DIR=LEFT_RIGHT
		DEPTH_AXIS_DIR=UP_DOWN
		ENERGY=6.00
		SSD=950.00
		WEDGE=None
		FIELD_INPLANE=100.00
		FIELD_CROSSPLANE=100.00
		FIELD_TYPE=RECTANGULAR
		GANTRY=0.00
		GANTRY_UPRIGHT_POSITION=0
		GANTRY_ROTATION=CW
		COLL_ANGLE=90.00
		COLL_OFFSET_INPLANE=0.00
		COLL_OFFSET_CROSSPLANE=0.00
		SCAN_DEVICE=STARCHECK
		ELECTROMETER=2D_ARRAY_INTERFACE
		DETECTOR=STARCHECK
		SCAN_CURVETYPE=INPLANE_PROFILE
		SCAN_DEPTH=0.00
		SCAN_OFFAXIS_CROSSPLANE=-130.00
		SCAN_ANGLE=0.00
		SCAN_DIAGONAL=NOT_DIAGONAL
		MEAS_PRESET=TIME_PRESET
		MEAS_TIME=10.000
		MEAS_UNIT=GY
		PRESSURE=1013.25
		TEMPERATURE=20.00
		NORM_TEMPERATURE=20.00
		CORRECTION_FACTOR=1.0000
		CORRECTIONS=AIR_DENSITY_CORR;
		BEGIN_DATA
			-130.00		2.3708E-03
			-125.00		2.4185E-03
			-120.00		3.0044E-03
			-115.00		3.2282E-03
			-110.00		3.1155E-03
			-105.00		3.2748E-03
			-100.00		4.0525E-03
			-95.00		4.0246E-03
			-90.00		4.8464E-03
			-85.00		3.9213E-03
			-80.00		4.2163E-03
			-75.00		4.5504E-03
			-70.00		5.1995E-03
			-65.00		4.9487E-03
			-60.00		4.9407E-03
			-55.00		5.8769E-03
			-50.00		4.2078E-03
			-45.00		4.5572E-03
			-40.00		4.5933E-03
			-35.00		5.2651E-03
			-30.00		5.2775E-03
			-25.00		5.1297E-03
			-20.00		5.1358E-03
			-15.00		4.7442E-03
			-10.00		4.9955E-03
			-5.00		6.1734E-03
			0.00		6.2306E-03
			5.00		6.7379E-03
			10.00		5.5678E-03
			15.00		5.4113E-03
			20.00		5.7442E-03
			25.00		5.0583E-03
			30.00		5.6424E-03
			35.00		5.2692E-03
			40.00		4.9335E-03
			45.00		4.6537E-03
			50.00		4.8525E-03
			55.00		4.3903E-03
			60.00		4.5078E-03
			65.00		4.0149E-03
			70.00		4.0325E-03
			75.00		4.0446E-03
			80.00		3.4497E-03
			85.00		3.5935E-03
			90.00		3.3124E-03
			95.00		3.2697E-03
			100.00		3.2879E-03
			105.00		2.4816E-03
			110.00		2.2995E-03
			115.00		2.1108E-03
			120.00		2.3461E-03
			125.00		2.3227E-03
			130.00		1.9573E-03
		END_DATA
	END_SCAN  8
	BEGIN_SCAN  9
		TASK_NAME=MODE_INTERVAL
		PROGRAM=BeamAdjust 1.2
		MEAS_DATE=07-Oct-2010 14:24:24
		LINAC=A4
		MODALITY=X
		INPLANE_AXIS_DIR=TARGET_GUN
		CROSSPLANE_AXIS_DIR=LEFT_RIGHT
		DEPTH_AXIS_DIR=UP_DOWN
		ENERGY=6.00
		SSD=950.00
		WEDGE=None
		FIELD_INPLANE=100.00
		FIELD_CROSSPLANE=100.00
		FIELD_TYPE=RECTANGULAR
		GANTRY=0.00
		GANTRY_UPRIGHT_POSITION=0
		GANTRY_ROTATION=CW
		COLL_ANGLE=90.00
		COLL_OFFSET_INPLANE=0.00
		COLL_OFFSET_CROSSPLANE=0.00
		SCAN_DEVICE=STARCHECK
		ELECTROMETER=2D_ARRAY_INTERFACE
		DETECTOR=STARCHECK
		SCAN_CURVETYPE=INPLANE_PROFILE
		SCAN_DEPTH=0.00
		SCAN_OFFAXIS_CROSSPLANE=-100.00
		SCAN_ANGLE=0.00
		SCAN_DIAGONAL=NOT_DIAGONAL
		MEAS_PRESET=TIME_PRESET
		MEAS_TIME=10.000
		MEAS_UNIT=GY
		PRESSURE=1013.25
		TEMPERATURE=20.00
		NORM_TEMPERATURE=20.00
		CORRECTION_FACTOR=1.0000
		CORRECTIONS=AIR_DENSITY_CORR;
		BEGIN_DATA
			-60.00		8.2084E-03
			-30.00		10.470E-03
			30.00		10.213E-03
			60.00		8.0108E-03
		END_DATA
	END_SCAN  9
	BEGIN_SCAN  10
		TASK_NAME=MODE_INTERVAL
		PROGRAM=BeamAdjust 1.2
		MEAS_DATE=07-Oct-2010 14:24:24
		LINAC=A4
		MODALITY=X
		INPLANE_AXIS_DIR=TARGET_GUN
		CROSSPLANE_AXIS_DIR=LEFT_RIGHT
		DEPTH_AXIS_DIR=UP_DOWN
		ENERGY=6.00
		SSD=950.00
		WEDGE=None
		FIELD_INPLANE=100.00
		FIELD_CROSSPLANE=100.00
		FIELD_TYPE=RECTANGULAR
		GANTRY=0.00
		GANTRY_UPRIGHT_POSITION=0
		GANTRY_ROTATION=CW
		COLL_ANGLE=90.00
		COLL_OFFSET_INPLANE=0.00
		COLL_OFFSET_CROSSPLANE=0.00
		SCAN_DEVICE=STARCHECK
		ELECTROMETER=2D_ARRAY_INTERFACE
		DETECTOR=STARCHECK
		SCAN_CURVETYPE=INPLANE_PROFILE
		SCAN_DEPTH=0.00
		SCAN_OFFAXIS_CROSSPLANE=-50.00
		SCAN_ANGLE=0.00
		SCAN_DIAGONAL=NOT_DIAGONAL
		MEAS_PRESET=TIME_PRESET
		MEAS_TIME=10.000
		MEAS_UNIT=GY
		PRESSURE=1013.25
		TEMPERATURE=20.00
		NORM_TEMPERATURE=20.00
		CORRECTION_FACTOR=1.0000
		CORRECTIONS=AIR_DENSITY_CORR;
		BEGIN_DATA
			-30.00		393.73E-03
			-15.00		391.51E-03
			15.00		381.55E-03
			30.00		371.52E-03
		END_DATA
	END_SCAN  10
	BEGIN_SCAN  11
		TASK_NAME=MODE_INTERVAL
		PROGRAM=BeamAdjust 1.2
		MEAS_DATE=07-Oct-2010 14:24:24
		LINAC=A4
		MODALITY=X
		INPLANE_AXIS_DIR=TARGET_GUN
		CROSSPLANE_AXIS_DIR=LEFT_RIGHT
		DEPTH_AXIS_DIR=UP_DOWN
		ENERGY=6.00
		SSD=950.00
		WEDGE=None
		FIELD_INPLANE=100.00
		FIELD_CROSSPLANE=100.00
		FIELD_TYPE=RECTANGULAR
		GANTRY=0.00
		GANTRY_UPRIGHT_POSITION=0
		GANTRY_ROTATION=CW
		COLL_ANGLE=90.00
		COLL_OFFSET_INPLANE=0.00
		COLL_OFFSET_CROSSPLANE=0.00
		SCAN_DEVICE=STARCHECK
		ELECTROMETER=2D_ARRAY_INTERFACE
		DETECTOR=STARCHECK
		SCAN_CURVETYPE=INPLANE_PROFILE
		SCAN_DEPTH=0.00
		SCAN_OFFAXIS_CROSSPLANE=0.00
		SCAN_ANGLE=0.00
		SCAN_DIAGONAL=NOT_DIAGONAL
		MEAS_PRESET=TIME_PRESET
		MEAS_TIME=10.000
		MEAS_UNIT=GY
		PRESSURE=1013.25
		TEMPERATURE=20.00
		NORM_TEMPERATURE=20.00
		CORRECTION_FACTOR=1.0000
		CORRECTIONS=AIR_DENSITY_CORR;
		BEGIN_DATA
			-126.00		8.3751E-03
			-123.00		8.6949E-03
			-120.00		9.5188E-03
			-117.00		11.025E-03
			-114.00		11.274E-03
			-111.00		11.784E-03
			-108.00		12.405E-03
			-105.00		13.855E-03
			-102.00		15.088E-03
			-99.00		15.331E-03
			-96.00		16.965E-03
			-93.00		18.735E-03
			-90.00		20.296E-03
			-87.00		21.674E-03
			-84.00		23.686E-03
			-81.00		25.788E-03
			-78.00		28.018E-03
			-75.00		30.867E-03
			-72.00		32.990E-03
			-69.00		36.261E-03
			-66.00		40.654E-03
			-63.00		45.475E-03
			-60.00		51.853E-03
			-57.00		62.806E-03
			-54.00		81.443E-03
			-51.00		130.50E-03
			-48.00		299.64E-03
			-45.00		552.86E-03
			-42.00		622.66E-03
			-39.00		643.67E-03
			-36.00		652.84E-03
			-33.00		659.01E-03
			-30.00		663.51E-03
			-27.00		665.66E-03
			-24.00		665.24E-03
			-21.00		664.43E-03
			-18.00		669.99E-03
			-15.00		668.17E-03
			-12.00		671.12E-03
			-9.00		672.29E-03
			-6.00		670.35E-03
			0.00		667.88E-03
			6.00		671.07E-03
			9.00		671.16E-03
			12.00		671.74E-03
			15.00		670.79E-03
			18.00		666.47E-03
			21.00		664.67E-03
			24.00		661.00E-03
			27.00		662.91E-03
			30.00		659.40E-03
			33.00		658.15E-03
			36.00		657.23E-03
			39.00		648.67E-03
			42.00		643.09E-03
			45.00		631.54E-03
			48.00		593.54E-03
			51.00		440.57E-03
			54.00		189.89E-03
			57.00		99.366E-03
			60.00		70.253E-03
			63.00		55.839E-03
			66.00		48.577E-03
			69.00		42.567E-03
			72.00		37.788E-03
			75.00		33.976E-03
			78.00		30.459E-03
			81.00		27.965E-03
			84.00		25.896E-03
			87.00		23.743E-03
			90.00		21.786E-03
			93.00		20.181E-03
			96.00		18.771E-03
			99.00		17.143E-03
			102.00		15.939E-03
			105.00		14.402E-03
			108.00		13.804E-03
			111.00		12.600E-03
			114.00		12.044E-03
			117.00		10.684E-03
			120.00		10.201E-03
			123.00		9.1063E-03
			126.00		8.7398E-03
		END_DATA
	END_SCAN  11
	BEGIN_SCAN  12
		TASK_NAME=MODE_INTERVAL
		PROGRAM=BeamAdjust 1.2
		MEAS_DATE=07-Oct-2010 14:24:24
		LINAC=A4
		MODALITY=X
		INPLANE_AXIS_DIR=TARGET_GUN
		CROSSPLANE_AXIS_DIR=LEFT_RIGHT
		DEPTH_AXIS_DIR=UP_DOWN
		ENERGY=6.00
		SSD=950.00
		WEDGE=None
		FIELD_INPLANE=100.00
		FIELD_CROSSPLANE=100.00
		FIELD_TYPE=RECTANGULAR
		GANTRY=0.00
		GANTRY_UPRIGHT_POSITION=0
		GANTRY_ROTATION=CW
		COLL_ANGLE=90.00
		COLL_OFFSET_INPLANE=0.00
		COLL_OFFSET_CROSSPLANE=0.00
		SCAN_DEVICE=STARCHECK
		ELECTROMETER=2D_ARRAY_INTERFACE
		DETECTOR=STARCHECK
		SCAN_CURVETYPE=INPLANE_PROFILE
		SCAN_DEPTH=0.00
		SCAN_OFFAXIS_CROSSPLANE=50.00
		SCAN_ANGLE=0.00
		SCAN_DIAGONAL=NOT_DIAGONAL
		MEAS_PRESET=TIME_PRESET
		MEAS_TIME=10.000
		MEAS_UNIT=GY
		PRESSURE=1013.25
		TEMPERATURE=20.00
		NORM_TEMPERATURE=20.00
		CORRECTION_FACTOR=1.0000
		CORRECTIONS=AIR_DENSITY_CORR;
		BEGIN_DATA
			-30.00		327.78E-03
			-15.00		337.83E-03
			15.00		346.26E-03
			30.00		348.23E-03
		END_DATA
	END_SCAN  12
	BEGIN_SCAN  13
		TASK_NAME=MODE_INTERVAL
		PROGRAM=BeamAdjust 1.2
		MEAS_DATE=07-Oct-2010 14:24:24
		LINAC=A4
		MODALITY=X
		INPLANE_AXIS_DIR=TARGET_GUN
		CROSSPLANE_AXIS_DIR=LEFT_RIGHT
		DEPTH_AXIS_DIR=UP_DOWN
		ENERGY=6.00
		SSD=950.00
		WEDGE=None
		FIELD_INPLANE=100.00
		FIELD_CROSSPLANE=100.00
		FIELD_TYPE=RECTANGULAR
		GANTRY=0.00
		GANTRY_UPRIGHT_POSITION=0
		GANTRY_ROTATION=CW
		COLL_ANGLE=90.00
		COLL_OFFSET_INPLANE=0.00
		COLL_OFFSET_CROSSPLANE=0.00
		SCAN_DEVICE=STARCHECK
		ELECTROMETER=2D_ARRAY_INTERFACE
		DETECTOR=STARCHECK
		SCAN_CURVETYPE=INPLANE_PROFILE
		SCAN_DEPTH=0.00
		SCAN_OFFAXIS_CROSSPLANE=100.00
		SCAN_ANGLE=0.00
		SCAN_DIAGONAL=NOT_DIAGONAL
		MEAS_PRESET=TIME_PRESET
		MEAS_TIME=10.000
		MEAS_UNIT=GY
		PRESSURE=1013.25
		TEMPERATURE=20.00
		NORM_TEMPERATURE=20.00
		CORRECTION_FACTOR=1.0000
		CORRECTIONS=AIR_DENSITY_CORR;
		BEGIN_DATA
			-60.00		7.5516E-03
			-30.00		10.241E-03
			30.00		10.250E-03
			60.00		7.7171E-03
		END_DATA
	END_SCAN  13
	BEGIN_SCAN  14
		TASK_NAME=MODE_INTERVAL
		PROGRAM=BeamAdjust 1.2
		MEAS_DATE=07-Oct-2010 14:24:24
		LINAC=A4
		MODALITY=X
		INPLANE_AXIS_DIR=TARGET_GUN
		CROSSPLANE_AXIS_DIR=LEFT_RIGHT
		DEPTH_AXIS_DIR=UP_DOWN
		ENERGY=6.00
		SSD=950.00
		WEDGE=None
		FIELD_INPLANE=100.00
		FIELD_CROSSPLANE=100.00
		FIELD_TYPE=RECTANGULAR
		GANTRY=0.00
		GANTRY_UPRIGHT_POSITION=0
		GANTRY_ROTATION=CW
		COLL_ANGLE=90.00
		COLL_OFFSET_INPLANE=0.00
		COLL_OFFSET_CROSSPLANE=0.00
		SCAN_DEVICE=STARCHECK
		ELECTROMETER=2D_ARRAY_INTERFACE
		DETECTOR=STARCHECK
		SCAN_CURVETYPE=INPLANE_PROFILE
		SCAN_DEPTH=0.00
		SCAN_OFFAXIS_CROSSPLANE=130.00
		SCAN_ANGLE=0.00
		SCAN_DIAGONAL=NOT_DIAGONAL
		MEAS_PRESET=TIME_PRESET
		MEAS_TIME=10.000
		MEAS_UNIT=GY
		PRESSURE=1013.25
		TEMPERATURE=20.00
		NORM_TEMPERATURE=20.00
		CORRECTION_FACTOR=1.0000
		CORRECTIONS=AIR_DENSITY_CORR;
		BEGIN_DATA
			-130.00		2.0302E-03
			-125.00		2.5330E-03
			-120.00		1.8671E-03
			-115.00		2.6767E-03
			-110.00		2.2396E-03
			-105.00		2.7267E-03
			-100.00		3.1353E-03
			-95.00		2.5502E-03
			-90.00		2.7295E-03
			-85.00		3.3906E-03
			-80.00		3.4306E-03
			-75.00		3.2908E-03
			-70.00		3.8291E-03
			-65.00		3.5215E-03
			-60.00		5.0673E-03
			-55.00		4.1435E-03
			-50.00		4.2073E-03
			-45.00		4.4803E-03
			-40.00		4.8344E-03
			-35.00		4.8927E-03
			-30.00		5.1998E-03
			-25.00		4.7709E-03
			-20.00		5.3708E-03
			-15.00		4.8497E-03
			-10.00		4.6812E-03
			-5.00		5.7378E-03
			0.00		5.8803E-03
			5.00		5.8765E-03
			10.00		5.9774E-03
			15.00		5.2368E-03
			20.00		5.2417E-03
			25.00		5.5607E-03
			30.00		5.0697E-03
			35.00		5.3545E-03
			40.00		5.5239E-03
			45.00		5.1184E-03
			50.00		4.8870E-03
			55.00		5.2867E-03
			60.00		4.6858E-03
			65.00		4.2887E-03
			70.00		4.2968E-03
			75.00		4.3107E-03
			80.00		4.5791E-03
			85.00		3.8492E-03
			90.00		3.5181E-03
			95.00		3.0743E-03
			100.00		3.5957E-03
			105.00		2.5388E-03
			110.00		2.9029E-03
			115.00		2.6813E-03
			120.00		2.8406E-03
			125.00		2.4423E-03
			130.00		2.0919E-03
		END_DATA
	END_SCAN  14
	BEGIN_SCAN  15
		TASK_NAME=MODE_INTERVAL
		PROGRAM=BeamAdjust 1.2
		MEAS_DATE=07-Oct-2010 14:24:24
		LINAC=A4
		MODALITY=X
		INPLANE_AXIS_DIR=TARGET_GUN
		CROSSPLANE_AXIS_DIR=LEFT_RIGHT
		DEPTH_AXIS_DIR=UP_DOWN
		ENERGY=6.00
		SSD=950.00
		WEDGE=None
		FIELD_INPLANE=100.00
		FIELD_CROSSPLANE=100.00
		FIELD_TYPE=RECTANGULAR
		GANTRY=0.00
		GANTRY_UPRIGHT_POSITION=0
		GANTRY_ROTATION=CW
		COLL_ANGLE=90.00
		COLL_OFFSET_INPLANE=0.00
		COLL_OFFSET_CROSSPLANE=0.00
		SCAN_DEVICE=STARCHECK
		ELECTROMETER=2D_ARRAY_INTERFACE
		DETECTOR=STARCHECK
		SCAN_CURVETYPE=INPLANE_PROFILE
		SCAN_DEPTH=0.00
		SCAN_OFFAXIS_CROSSPLANE=0.00
		SCAN_ANGLE=0.00
		SCAN_DIAGONAL=FIRST_DIAGONAL
		MEAS_PRESET=TIME_PRESET
		MEAS_TIME=10.000
		MEAS_UNIT=GY
		PRESSURE=1013.25
		TEMPERATURE=20.00
		NORM_TEMPERATURE=20.00
		CORRECTION_FACTOR=1.0000
		CORRECTIONS=AIR_DENSITY_CORR;
		BEGIN_DATA
			-172.40		2.2838E-03
			-169.40		2.9562E-03
			-166.40		3.5761E-03
			-163.40		3.5837E-03
			-160.40		4.1474E-03
			-157.40		3.8442E-03
			-154.40		3.6937E-03
			-151.40		3.7075E-03
			-148.40		4.2732E-03
			-145.40		4.8219E-03
			-142.40		5.2946E-03
			-139.40		5.6939E-03
			-136.40		5.9737E-03
			-133.40		6.2799E-03
			-130.40		7.2257E-03
			-127.40		6.7325E-03
			-124.40		8.1271E-03
			-121.40		8.0417E-03
			-118.40		10.065E-03
			-115.40		9.9903E-03
			-112.40		10.933E-03
			-109.40		11.959E-03
			-106.40		13.110E-03
			-103.40		13.543E-03
			-100.40		14.794E-03
			-97.40		16.996E-03
			-94.40		18.796E-03
			-91.40		20.514E-03
			-88.40		23.206E-03
			-85.40		25.531E-03
			-82.40		29.350E-03
			-79.40		34.187E-03
			-76.40		41.502E-03
			-73.40		58.799E-03
			-70.40		110.25E-03
			-67.40		267.36E-03
			-64.40		449.77E-03
			-61.40		562.19E-03
			-58.40		607.70E-03
			-55.40		628.58E-03
			-52.40		638.86E-03
			-49.40		646.04E-03
			-46.40		649.40E-03
			-43.40		652.60E-03
			-40.40		655.92E-03
			-37.40		660.85E-03
			-34.40		661.14E-03
			-31.40		663.23E-03
			-28.40		661.53E-03
			-25.40		664.68E-03
			-22.40		664.92E-03
			-19.40		664.06E-03
			-16.40		668.65E-03
			-13.40		671.43E-03
			0.00		667.88E-03
			13.40		673.73E-03
			16.40		668.60E-03
			19.40		668.16E-03
			22.40		666.49E-03
			25.40		665.50E-03
			28.40		664.77E-03
			31.40		662.50E-03
			34.40		659.54E-03
			37.40		662.01E-03
			40.40		659.80E-03
			43.40		656.83E-03
			46.40		655.31E-03
			49.40		650.01E-03
			52.40		646.71E-03
			55.40		636.30E-03
			58.40		627.07E-03
			61.40		607.73E-03
			64.40		562.63E-03
			67.40		445.78E-03
			70.40		243.43E-03
			73.40		98.603E-03
			76.40		54.187E-03
			79.40		39.988E-03
			82.40		32.632E-03
			85.40		28.063E-03
			88.40		25.208E-03
			91.40		21.984E-03
			94.40		19.915E-03
			97.40		17.902E-03
			100.40		16.233E-03
			103.40		15.291E-03
			106.40		13.470E-03
			109.40		12.566E-03
			112.40		11.279E-03
			115.40		10.460E-03
			118.40		8.8989E-03
			121.40		8.8761E-03
			124.40		7.9714E-03
			127.40		7.6733E-03
			130.40		7.3427E-03
			133.40		6.1085E-03
			136.40		5.3941E-03
			139.40		4.7665E-03
			142.40		4.6927E-03
			145.40		4.4429E-03
			148.40		4.4831E-03
			151.40		3.5671E-03
			154.40		4.2656E-03
			157.40		3.2223E-03
			160.40		2.4860E-03
			163.40		2.3565E-03
			166.40		2.6014E-03
			169.40		2.1962E-03
			172.40		2.4415E-03
		END_DATA
	END_SCAN  15
	BEGIN_SCAN  16
		TASK_NAME=MODE_INTERVAL
		PROGRAM=BeamAdjust 1.2
		MEAS_DATE=07-Oct-2010 14:24:24
		LINAC=A4
		MODALITY=X
		INPLANE_AXIS_DIR=GUN_TARGET
		CROSSPLANE_AXIS_DIR=LEFT_RIGHT
		DEPTH_AXIS_DIR=UP_DOWN
		ENERGY=6.00
		SSD=950.00
		WEDGE=None
		FIELD_INPLANE=100.00
		FIELD_CROSSPLANE=100.00
		FIELD_TYPE=RECTANGULAR
		GANTRY=0.00
		GANTRY_UPRIGHT_POSITION=0
		GANTRY_ROTATION=CW
		COLL_ANGLE=90.00
		COLL_OFFSET_INPLANE=0.00
		COLL_OFFSET_CROSSPLANE=0.00
		SCAN_DEVICE=STARCHECK
		ELECTROMETER=2D_ARRAY_INTERFACE
		DETECTOR=STARCHECK
		SCAN_CURVETYPE=INPLANE_PROFILE
		SCAN_DEPTH=0.00
		SCAN_OFFAXIS_CROSSPLANE=0.00
		SCAN_ANGLE=0.00
		SCAN_DIAGONAL=SECOND_DIAGONAL
		MEAS_PRESET=TIME_PRESET
		MEAS_TIME=10.000
		MEAS_UNIT=GY
		PRESSURE=1013.25
		TEMPERATURE=20.00
		NORM_TEMPERATURE=20.00
		CORRECTION_FACTOR=1.0000
		CORRECTIONS=AIR_DENSITY_CORR;
		BEGIN_DATA
			-172.40		2.5053E-03
			-169.40		2.5686E-03
			-166.40		2.7088E-03
			-163.40		2.5976E-03
			-160.40		2.9371E-03
			-157.40		3.3419E-03
			-154.40		3.3895E-03
			-151.40		4.1745E-03
			-148.40		4.1424E-03
			-145.40		4.7901E-03
			-142.40		4.7462E-03
			-139.40		5.0633E-03
			-136.40		5.5405E-03
			-133.40		6.1393E-03
			-130.40		6.7599E-03
			-127.40		7.2634E-03
			-124.40		8.2537E-03
			-121.40		8.6029E-03
			-118.40		9.0238E-03
			-115.40		9.5285E-03
			-112.40		10.0000E-03
			-109.40		11.539E-03
			-106.40		12.577E-03
			-103.40		14.016E-03
			-100.40		15.327E-03
			-97.40		16.214E-03
			-94.40		17.871E-03
			-91.40		20.143E-03
			-88.40		21.719E-03
			-85.40		24.610E-03
			-82.40		27.992E-03
			-79.40		33.040E-03
			-76.40		39.406E-03
			-73.40		53.685E-03
			-70.40		92.374E-03
			-67.40		227.63E-03
			-64.40		428.80E-03
			-61.40		557.26E-03
			-58.40		610.12E-03
			-55.40		629.97E-03
			-52.40		644.93E-03
			-49.40		650.95E-03
			-46.40		655.15E-03
			-43.40		658.83E-03
			-40.40		660.82E-03
			-37.40		664.69E-03
			-34.40		664.72E-03
			-31.40		665.37E-03
			-28.40		668.39E-03
			-25.40		667.43E-03
			-22.40		665.74E-03
			-19.40		668.49E-03
			-16.40		669.99E-03
			-13.40		672.91E-03
			0.00		667.88E-03
			13.40		672.04E-03
			16.40		669.48E-03
			19.40		666.03E-03
			22.40		662.68E-03
			25.40		662.21E-03
			28.40		661.42E-03
			31.40		659.90E-03
			34.40		657.07E-03
			37.40		656.72E-03
			40.40		655.57E-03
			43.40		654.00E-03
			46.40		652.33E-03
			49.40		648.59E-03
			52.40		641.08E-03
			55.40		634.31E-03
			58.40		626.99E-03
			61.40		608.26E-03
			64.40		568.47E-03
			67.40		461.49E-03
			70.40		262.38E-03
			73.40		105.72E-03
			76.40		55.939E-03
			79.40		40.382E-03
			82.40		33.687E-03
			85.40		29.505E-03
			88.40		25.444E-03
			91.40		22.884E-03
			94.40		20.450E-03
			97.40		18.706E-03
			100.40		15.994E-03
			103.40		14.673E-03
			106.40		13.760E-03
			109.40		12.213E-03
			112.40		11.934E-03
			115.40		10.533E-03
			118.40		9.6518E-03
			121.40		8.8806E-03
			124.40		8.0960E-03
			127.40		7.9473E-03
			130.40		7.4846E-03
			133.40		6.6835E-03
			136.40		5.8197E-03
			139.40		6.1870E-03
			142.40		5.5698E-03
			145.40		5.2407E-03
			148.40		4.7644E-03
			151.40		4.1495E-03
			154.40		4.1190E-03
			157.40		3.9149E-03
			160.40		3.5753E-03
			163.40		3.9725E-03
			166.40		3.3432E-03
			169.40		3.7380E-03
			172.40		2.2680E-03
		END_DATA
	END_SCAN  16
END_SCAN_DATA
