BEGIN_SCAN_DATA
	FORMAT=CC-Export V1.9                  
	FILE_CREATION_DATE=07-Oct-2010 14:24:51
	LAST_MODIFIED=07-Oct-2010 14:24:51
	BEGIN_SCAN  1
		TASK_NAME=MODE_INTERVAL
		PROGRAM=BeamAdjust 1.2
		MEAS_DATE=07-Oct-2010 14:24:51
		LINAC=A4
		MODALITY=X
		INPLANE_AXIS_DIR=TARGET_GUN
		CROSSPLANE_AXIS_DIR=LEFT_RIGHT
		DEPTH_AXIS_DIR=UP_DOWN
		ENERGY=6.00
		SSD=950.00
		WEDGE=None
		FIELD_INPLANE=100.00
		FIELD_CROSSPLANE=100.00
		FIELD_TYPE=RECTANGULAR
		GANTRY=0.00
		GANTRY_UPRIGHT_POSITION=0
		GANTRY_ROTATION=CW
		COLL_ANGLE=90.00
		COLL_OFFSET_INPLANE=0.00
		COLL_OFFSET_CROSSPLANE=0.00
		SCAN_DEVICE=STARCHECK
		ELECTROMETER=2D_ARRAY_INTERFACE
		DETECTOR=STARCHECK
		SCAN_CURVETYPE=CROSSPLANE_PROFILE
		SCAN_DEPTH=0.00
		SCAN_OFFAXIS_INPLANE=-130.00
		SCAN_ANGLE=0.00
		SCAN_DIAGONAL=NOT_DIAGONAL
		MEAS_PRESET=TIME_PRESET
		MEAS_TIME=10.000
		MEAS_UNIT=GY
		PRESSURE=1013.25
		TEMPERATURE=20.00
		NORM_TEMPERATURE=20.00
		CORRECTION_FACTOR=1.0000
		CORRECTIONS=AIR_DENSITY_CORR;
		BEGIN_DATA
			-130.00		2.4198E-03
			-80.00		3.8340E-03
			-40.00		6.8681E-03
			40.00		6.3643E-03
			80.00		3.5759E-03
			130.00		2.0915E-03
		END_DATA
	END_SCAN  1
	BEGIN_SCAN  2
		TASK_NAME=MODE_INTERVAL
		PROGRAM=BeamAdjust 1.2
		MEAS_DATE=07-Oct-2010 14:24:51
		LINAC=A4
		MODALITY=X
		INPLANE_AXIS_DIR=TARGET_GUN
		CROSSPLANE_AXIS_DIR=LEFT_RIGHT
		DEPTH_AXIS_DIR=UP_DOWN
		ENERGY=6.00
		SSD=950.00
		WEDGE=None
		FIELD_INPLANE=100.00
		FIELD_CROSSPLANE=100.00
		FIELD_TYPE=RECTANGULAR
		GANTRY=0.00
		GANTRY_UPRIGHT_POSITION=0
		GANTRY_ROTATION=CW
		COLL_ANGLE=90.00
		COLL_OFFSET_INPLANE=0.00
		COLL_OFFSET_CROSSPLANE=0.00
		SCAN_DEVICE=STARCHECK
		ELECTROMETER=2D_ARRAY_INTERFACE
		DETECTOR=STARCHECK
		SCAN_CURVETYPE=CROSSPLANE_PROFILE
		SCAN_DEPTH=0.00
		SCAN_OFFAXIS_INPLANE=-100.00
		SCAN_ANGLE=0.00
		SCAN_DIAGONAL=NOT_DIAGONAL
		MEAS_PRESET=TIME_PRESET
		MEAS_TIME=10.000
		MEAS_UNIT=GY
		PRESSURE=1013.25
		TEMPERATURE=20.00
		NORM_TEMPERATURE=20.00
		CORRECTION_FACTOR=1.0000
		CORRECTIONS=AIR_DENSITY_CORR;
		BEGIN_DATA
			-60.00		9.7578E-03
			-30.00		13.334E-03
			30.00		13.933E-03
			60.00		9.2332E-03
		END_DATA
	END_SCAN  2
	BEGIN_SCAN  3
		TASK_NAME=MODE_INTERVAL
		PROGRAM=BeamAdjust 1.2
		MEAS_DATE=07-Oct-2010 14:24:51
		LINAC=A4
		MODALITY=X
		INPLANE_AXIS_DIR=TARGET_GUN
		CROSSPLANE_AXIS_DIR=LEFT_RIGHT
		DEPTH_AXIS_DIR=UP_DOWN
		ENERGY=6.00
		SSD=950.00
		WEDGE=None
		FIELD_INPLANE=100.00
		FIELD_CROSSPLANE=100.00
		FIELD_TYPE=RECTANGULAR
		GANTRY=0.00
		GANTRY_UPRIGHT_POSITION=0
		GANTRY_ROTATION=CW
		COLL_ANGLE=90.00
		COLL_OFFSET_INPLANE=0.00
		COLL_OFFSET_CROSSPLANE=0.00
		SCAN_DEVICE=STARCHECK
		ELECTROMETER=2D_ARRAY_INTERFACE
		DETECTOR=STARCHECK
		SCAN_CURVETYPE=CROSSPLANE_PROFILE
		SCAN_DEPTH=0.00
		SCAN_OFFAXIS_INPLANE=-50.00
		SCAN_ANGLE=0.00
		SCAN_DIAGONAL=NOT_DIAGONAL
		MEAS_PRESET=TIME_PRESET
		MEAS_TIME=10.000
		MEAS_UNIT=GY
		PRESSURE=1013.25
		TEMPERATURE=20.00
		NORM_TEMPERATURE=20.00
		CORRECTION_FACTOR=1.0000
		CORRECTIONS=AIR_DENSITY_CORR;
		BEGIN_DATA
			-30.00		153.35E-03
			-15.00		136.02E-03
			15.00		146.75E-03
			30.00		151.87E-03
		END_DATA
	END_SCAN  3
	BEGIN_SCAN  4
		TASK_NAME=MODE_INTERVAL
		PROGRAM=BeamAdjust 1.2
		MEAS_DATE=07-Oct-2010 14:24:51
		LINAC=A4
		MODALITY=X
		INPLANE_AXIS_DIR=TARGET_GUN
		CROSSPLANE_AXIS_DIR=LEFT_RIGHT
		DEPTH_AXIS_DIR=UP_DOWN
		ENERGY=6.00
		SSD=950.00
		WEDGE=None
		FIELD_INPLANE=100.00
		FIELD_CROSSPLANE=100.00
		FIELD_TYPE=RECTANGULAR
		GANTRY=0.00
		GANTRY_UPRIGHT_POSITION=0
		GANTRY_ROTATION=CW
		COLL_ANGLE=90.00
		COLL_OFFSET_INPLANE=0.00
		COLL_OFFSET_CROSSPLANE=0.00
		SCAN_DEVICE=STARCHECK
		ELECTROMETER=2D_ARRAY_INTERFACE
		DETECTOR=STARCHECK
		SCAN_CURVETYPE=CROSSPLANE_PROFILE
		SCAN_DEPTH=0.00
		SCAN_OFFAXIS_INPLANE=0.00
		SCAN_ANGLE=0.00
		SCAN_DIAGONAL=NOT_DIAGONAL
		MEAS_PRESET=TIME_PRESET
		MEAS_TIME=10.000
		MEAS_UNIT=GY
		PRESSURE=1013.25
		TEMPERATURE=20.00
		NORM_TEMPERATURE=20.00
		CORRECTION_FACTOR=1.0000
		CORRECTIONS=AIR_DENSITY_CORR;
		BEGIN_DATA
			-126.00		6.4379E-03
			-123.00		7.5175E-03
			-120.00		7.7738E-03
			-117.00		8.3910E-03
			-114.00		9.2320E-03
			-111.00		9.1072E-03
			-108.00		10.033E-03
			-105.00		10.658E-03
			-102.00		11.787E-03
			-99.00		12.514E-03
			-96.00		14.018E-03
			-93.00		14.976E-03
			-90.00		16.664E-03
			-87.00		17.654E-03
			-84.00		20.379E-03
			-81.00		21.399E-03
			-78.00		24.039E-03
			-75.00		26.490E-03
			-72.00		30.173E-03
			-69.00		33.853E-03
			-66.00		39.242E-03
			-63.00		45.038E-03
			-60.00		54.760E-03
			-57.00		72.154E-03
			-54.00		113.69E-03
			-51.00		288.40E-03
			-48.00		554.70E-03
			-45.00		617.08E-03
			-42.00		637.35E-03
			-39.00		649.54E-03
			-36.00		655.87E-03
			-33.00		656.14E-03
			-30.00		658.33E-03
			-27.00		660.59E-03
			-24.00		663.72E-03
			-21.00		663.03E-03
			-18.00		669.33E-03
			-15.00		669.79E-03
			-12.00		668.92E-03
			-9.00		671.37E-03
			-6.00		669.87E-03
			0.00		669.19E-03
			6.00		672.35E-03
			9.00		671.81E-03
			12.00		669.19E-03
			15.00		668.81E-03
			18.00		667.87E-03
			21.00		666.24E-03
			24.00		662.04E-03
			27.00		666.43E-03
			30.00		664.57E-03
			33.00		662.34E-03
			36.00		658.63E-03
			39.00		652.92E-03
			42.00		641.22E-03
			45.00		616.53E-03
			48.00		528.70E-03
			51.00		235.17E-03
			54.00		102.64E-03
			57.00		68.234E-03
			60.00		53.627E-03
			63.00		44.034E-03
			66.00		37.571E-03
			69.00		33.028E-03
			72.00		29.451E-03
			75.00		26.505E-03
			78.00		23.424E-03
			81.00		21.802E-03
			84.00		19.518E-03
			87.00		17.706E-03
			90.00		16.548E-03
			93.00		14.990E-03
			96.00		13.398E-03
			99.00		12.402E-03
			102.00		12.389E-03
			105.00		10.434E-03
			108.00		10.473E-03
			111.00		8.8554E-03
			114.00		8.5329E-03
			117.00		7.8675E-03
			120.00		7.1342E-03
			123.00		6.8907E-03
			126.00		6.8607E-03
		END_DATA
	END_SCAN  4
	BEGIN_SCAN  5
		TASK_NAME=MODE_INTERVAL
		PROGRAM=BeamAdjust 1.2
		MEAS_DATE=07-Oct-2010 14:24:51
		LINAC=A4
		MODALITY=X
		INPLANE_AXIS_DIR=TARGET_GUN
		CROSSPLANE_AXIS_DIR=LEFT_RIGHT
		DEPTH_AXIS_DIR=UP_DOWN
		ENERGY=6.00
		SSD=950.00
		WEDGE=None
		FIELD_INPLANE=100.00
		FIELD_CROSSPLANE=100.00
		FIELD_TYPE=RECTANGULAR
		GANTRY=0.00
		GANTRY_UPRIGHT_POSITION=0
		GANTRY_ROTATION=CW
		COLL_ANGLE=90.00
		COLL_OFFSET_INPLANE=0.00
		COLL_OFFSET_CROSSPLANE=0.00
		SCAN_DEVICE=STARCHECK
		ELECTROMETER=2D_ARRAY_INTERFACE
		DETECTOR=STARCHECK
		SCAN_CURVETYPE=CROSSPLANE_PROFILE
		SCAN_DEPTH=0.00
		SCAN_OFFAXIS_INPLANE=50.00
		SCAN_ANGLE=0.00
		SCAN_DIAGONAL=NOT_DIAGONAL
		MEAS_PRESET=TIME_PRESET
		MEAS_TIME=10.000
		MEAS_UNIT=GY
		PRESSURE=1013.25
		TEMPERATURE=20.00
		NORM_TEMPERATURE=20.00
		CORRECTION_FACTOR=1.0000
		CORRECTIONS=AIR_DENSITY_CORR;
		BEGIN_DATA
			-30.00		522.97E-03
			-15.00		537.11E-03
			15.00		513.93E-03
			30.00		515.61E-03
		END_DATA
	END_SCAN  5
	BEGIN_SCAN  6
		TASK_NAME=MODE_INTERVAL
		PROGRAM=BeamAdjust 1.2
		MEAS_DATE=07-Oct-2010 14:24:51
		LINAC=A4
		MODALITY=X
		INPLANE_AXIS_DIR=TARGET_GUN
		CROSSPLANE_AXIS_DIR=LEFT_RIGHT
		DEPTH_AXIS_DIR=UP_DOWN
		ENERGY=6.00
		SSD=950.00
		WEDGE=None
		FIELD_INPLANE=100.00
		FIELD_CROSSPLANE=100.00
		FIELD_TYPE=RECTANGULAR
		GANTRY=0.00
		GANTRY_UPRIGHT_POSITION=0
		GANTRY_ROTATION=CW
		COLL_ANGLE=90.00
		COLL_OFFSET_INPLANE=0.00
		COLL_OFFSET_CROSSPLANE=0.00
		SCAN_DEVICE=STARCHECK
		ELECTROMETER=2D_ARRAY_INTERFACE
		DETECTOR=STARCHECK
		SCAN_CURVETYPE=CROSSPLANE_PROFILE
		SCAN_DEPTH=0.00
		SCAN_OFFAXIS_INPLANE=100.00
		SCAN_ANGLE=0.00
		SCAN_DIAGONAL=NOT_DIAGONAL
		MEAS_PRESET=TIME_PRESET
		MEAS_TIME=10.000
		MEAS_UNIT=GY
		PRESSURE=1013.25
		TEMPERATURE=20.00
		NORM_TEMPERATURE=20.00
		CORRECTION_FACTOR=1.0000
		CORRECTIONS=AIR_DENSITY_CORR;
		BEGIN_DATA
			-60.00		10.655E-03
			-30.00		15.874E-03
			30.00		16.105E-03
			60.00		9.6587E-03
		END_DATA
	END_SCAN  6
	BEGIN_SCAN  7
		TASK_NAME=MODE_INTERVAL
		PROGRAM=BeamAdjust 1.2
		MEAS_DATE=07-Oct-2010 14:24:51
		LINAC=A4
		MODALITY=X
		INPLANE_AXIS_DIR=TARGET_GUN
		CROSSPLANE_AXIS_DIR=LEFT_RIGHT
		DEPTH_AXIS_DIR=UP_DOWN
		ENERGY=6.00
		SSD=950.00
		WEDGE=None
		FIELD_INPLANE=100.00
		FIELD_CROSSPLANE=100.00
		FIELD_TYPE=RECTANGULAR
		GANTRY=0.00
		GANTRY_UPRIGHT_POSITION=0
		GANTRY_ROTATION=CW
		COLL_ANGLE=90.00
		COLL_OFFSET_INPLANE=0.00
		COLL_OFFSET_CROSSPLANE=0.00
		SCAN_DEVICE=STARCHECK
		ELECTROMETER=2D_ARRAY_INTERFACE
		DETECTOR=STARCHECK
		SCAN_CURVETYPE=CROSSPLANE_PROFILE
		SCAN_DEPTH=0.00
		SCAN_OFFAXIS_INPLANE=130.00
		SCAN_ANGLE=0.00
		SCAN_DIAGONAL=NOT_DIAGONAL
		MEAS_PRESET=TIME_PRESET
		MEAS_TIME=10.000
		MEAS_UNIT=GY
		PRESSURE=1013.25
		TEMPERATURE=20.00
		NORM_TEMPERATURE=20.00
		CORRECTION_FACTOR=1.0000
		CORRECTIONS=AIR_DENSITY_CORR;
		BEGIN_DATA
			-130.00		1.7262E-03
			-80.00		3.9649E-03
			-40.00		7.9751E-03
			40.00		7.6060E-03
			80.00		4.3854E-03
			130.00		2.0963E-03
		END_DATA
	END_SCAN  7
	BEGIN_SCAN  8
		TASK_NAME=MODE_INTERVAL
		PROGRAM=BeamAdjust 1.2
		MEAS_DATE=07-Oct-2010 14:24:51
		LINAC=A4
		MODALITY=X
		INPLANE_AXIS_DIR=TARGET_GUN
		CROSSPLANE_AXIS_DIR=LEFT_RIGHT
		DEPTH_AXIS_DIR=UP_DOWN
		ENERGY=6.00
		SSD=950.00
		WEDGE=None
		FIELD_INPLANE=100.00
		FIELD_CROSSPLANE=100.00
		FIELD_TYPE=RECTANGULAR
		GANTRY=0.00
		GANTRY_UPRIGHT_POSITION=0
		GANTRY_ROTATION=CW
		COLL_ANGLE=90.00
		COLL_OFFSET_INPLANE=0.00
		COLL_OFFSET_CROSSPLANE=0.00
		SCAN_DEVICE=STARCHECK
		ELECTROMETER=2D_ARRAY_INTERFACE
		DETECTOR=STARCHECK
		SCAN_CURVETYPE=INPLANE_PROFILE
		SCAN_DEPTH=0.00
		SCAN_OFFAXIS_CROSSPLANE=-130.00
		SCAN_ANGLE=0.00
		SCAN_DIAGONAL=NOT_DIAGONAL
		MEAS_PRESET=TIME_PRESET
		MEAS_TIME=10.000
		MEAS_UNIT=GY
		PRESSURE=1013.25
		TEMPERATURE=20.00
		NORM_TEMPERATURE=20.00
		CORRECTION_FACTOR=1.0000
		CORRECTIONS=AIR_DENSITY_CORR;
		BEGIN_DATA
			-130.00		2.4198E-03
			-125.00		2.1245E-03
			-120.00		3.0148E-03
			-115.00		2.7565E-03
			-110.00		3.3930E-03
			-105.00		3.2049E-03
			-100.00		3.9528E-03
			-95.00		4.0603E-03
			-90.00		4.7680E-03
			-85.00		3.7572E-03
			-80.00		4.5130E-03
			-75.00		4.5416E-03
			-70.00		4.9297E-03
			-65.00		5.2920E-03
			-60.00		5.2264E-03
			-55.00		5.7093E-03
			-50.00		4.1574E-03
			-45.00		4.4978E-03
			-40.00		4.8532E-03
			-35.00		5.1290E-03
			-30.00		5.6200E-03
			-25.00		4.6789E-03
			-20.00		5.2395E-03
			-15.00		4.6910E-03
			-10.00		5.1017E-03
			-5.00		5.9370E-03
			0.00		6.0069E-03
			5.00		6.7926E-03
			10.00		5.7737E-03
			15.00		5.6072E-03
			20.00		5.9099E-03
			25.00		5.1982E-03
			30.00		5.4736E-03
			35.00		5.5076E-03
			40.00		4.9706E-03
			45.00		4.8607E-03
			50.00		4.8852E-03
			55.00		4.0722E-03
			60.00		4.7572E-03
			65.00		3.8343E-03
			70.00		3.8230E-03
			75.00		4.2720E-03
			80.00		3.5344E-03
			85.00		3.5460E-03
			90.00		3.2738E-03
			95.00		3.3610E-03
			100.00		2.8652E-03
			105.00		2.7417E-03
			110.00		2.4158E-03
			115.00		2.6931E-03
			120.00		2.2896E-03
			125.00		2.6555E-03
			130.00		1.7262E-03
		END_DATA
	END_SCAN  8
	BEGIN_SCAN  9
		TASK_NAME=MODE_INTERVAL
		PROGRAM=BeamAdjust 1.2
		MEAS_DATE=07-Oct-2010 14:24:51
		LINAC=A4
		MODALITY=X
		INPLANE_AXIS_DIR=TARGET_GUN
		CROSSPLANE_AXIS_DIR=LEFT_RIGHT
		DEPTH_AXIS_DIR=UP_DOWN
		ENERGY=6.00
		SSD=950.00
		WEDGE=None
		FIELD_INPLANE=100.00
		FIELD_CROSSPLANE=100.00
		FIELD_TYPE=RECTANGULAR
		GANTRY=0.00
		GANTRY_UPRIGHT_POSITION=0
		GANTRY_ROTATION=CW
		COLL_ANGLE=90.00
		COLL_OFFSET_INPLANE=0.00
		COLL_OFFSET_CROSSPLANE=0.00
		SCAN_DEVICE=STARCHECK
		ELECTROMETER=2D_ARRAY_INTERFACE
		DETECTOR=STARCHECK
		SCAN_CURVETYPE=INPLANE_PROFILE
		SCAN_DEPTH=0.00
		SCAN_OFFAXIS_CROSSPLANE=-100.00
		SCAN_ANGLE=0.00
		SCAN_DIAGONAL=NOT_DIAGONAL
		MEAS_PRESET=TIME_PRESET
		MEAS_TIME=10.000
		MEAS_UNIT=GY
		PRESSURE=1013.25
		TEMPERATURE=20.00
		NORM_TEMPERATURE=20.00
		CORRECTION_FACTOR=1.0000
		CORRECTIONS=AIR_DENSITY_CORR;
		BEGIN_DATA
			-60.00		8.1403E-03
			-30.00		10.432E-03
			30.00		10.238E-03
			60.00		8.1417E-03
		END_DATA
	END_SCAN  9
	BEGIN_SCAN  10
		TASK_NAME=MODE_INTERVAL
		PROGRAM=BeamAdjust 1.2
		MEAS_DATE=07-Oct-2010 14:24:51
		LINAC=A4
		MODALITY=X
		INPLANE_AXIS_DIR=TARGET_GUN
		CROSSPLANE_AXIS_DIR=LEFT_RIGHT
		DEPTH_AXIS_DIR=UP_DOWN
		ENERGY=6.00
		SSD=950.00
		WEDGE=None
		FIELD_INPLANE=100.00
		FIELD_CROSSPLANE=100.00
		FIELD_TYPE=RECTANGULAR
		GANTRY=0.00
		GANTRY_UPRIGHT_POSITION=0
		GANTRY_ROTATION=CW
		COLL_ANGLE=90.00
		COLL_OFFSET_INPLANE=0.00
		COLL_OFFSET_CROSSPLANE=0.00
		SCAN_DEVICE=STARCHECK
		ELECTROMETER=2D_ARRAY_INTERFACE
		DETECTOR=STARCHECK
		SCAN_CURVETYPE=INPLANE_PROFILE
		SCAN_DEPTH=0.00
		SCAN_OFFAXIS_CROSSPLANE=-50.00
		SCAN_ANGLE=0.00
		SCAN_DIAGONAL=NOT_DIAGONAL
		MEAS_PRESET=TIME_PRESET
		MEAS_TIME=10.000
		MEAS_UNIT=GY
		PRESSURE=1013.25
		TEMPERATURE=20.00
		NORM_TEMPERATURE=20.00
		CORRECTION_FACTOR=1.0000
		CORRECTIONS=AIR_DENSITY_CORR;
		BEGIN_DATA
			-30.00		393.95E-03
			-15.00		391.60E-03
			15.00		382.38E-03
			30.00		372.07E-03
		END_DATA
	END_SCAN  10
	BEGIN_SCAN  11
		TASK_NAME=MODE_INTERVAL
		PROGRAM=BeamAdjust 1.2
		MEAS_DATE=07-Oct-2010 14:24:51
		LINAC=A4
		MODALITY=X
		INPLANE_AXIS_DIR=TARGET_GUN
		CROSSPLANE_AXIS_DIR=LEFT_RIGHT
		DEPTH_AXIS_DIR=UP_DOWN
		ENERGY=6.00
		SSD=950.00
		WEDGE=None
		FIELD_INPLANE=100.00
		FIELD_CROSSPLANE=100.00
		FIELD_TYPE=RECTANGULAR
		GANTRY=0.00
		GANTRY_UPRIGHT_POSITION=0
		GANTRY_ROTATION=CW
		COLL_ANGLE=90.00
		COLL_OFFSET_INPLANE=0.00
		COLL_OFFSET_CROSSPLANE=0.00
		SCAN_DEVICE=STARCHECK
		ELECTROMETER=2D_ARRAY_INTERFACE
		DETECTOR=STARCHECK
		SCAN_CURVETYPE=INPLANE_PROFILE
		SCAN_DEPTH=0.00
		SCAN_OFFAXIS_CROSSPLANE=0.00
		SCAN_ANGLE=0.00
		SCAN_DIAGONAL=NOT_DIAGONAL
		MEAS_PRESET=TIME_PRESET
		MEAS_TIME=10.000
		MEAS_UNIT=GY
		PRESSURE=1013.25
		TEMPERATURE=20.00
		NORM_TEMPERATURE=20.00
		CORRECTION_FACTOR=1.0000
		CORRECTIONS=AIR_DENSITY_CORR;
		BEGIN_DATA
			-126.00		8.3601E-03
			-123.00		8.4733E-03
			-120.00		9.4617E-03
			-117.00		10.639E-03
			-114.00		11.517E-03
			-111.00		11.586E-03
			-108.00		12.705E-03
			-105.00		13.632E-03
			-102.00		14.797E-03
			-99.00		15.283E-03
			-96.00		16.855E-03
			-93.00		18.563E-03
			-90.00		20.284E-03
			-87.00		21.452E-03
			-84.00		23.493E-03
			-81.00		25.481E-03
			-78.00		27.920E-03
			-75.00		30.079E-03
			-72.00		33.122E-03
			-69.00		35.760E-03
			-66.00		40.201E-03
			-63.00		44.948E-03
			-60.00		51.585E-03
			-57.00		61.321E-03
			-54.00		79.295E-03
			-51.00		123.64E-03
			-48.00		276.60E-03
			-45.00		539.02E-03
			-42.00		620.41E-03
			-39.00		642.38E-03
			-36.00		653.08E-03
			-33.00		658.06E-03
			-30.00		664.32E-03
			-27.00		665.47E-03
			-24.00		666.01E-03
			-21.00		664.65E-03
			-18.00		670.68E-03
			-15.00		668.56E-03
			-12.00		671.85E-03
			-9.00		673.05E-03
			-6.00		670.94E-03
			0.00		669.19E-03
			6.00		672.14E-03
			9.00		672.12E-03
			12.00		672.57E-03
			15.00		672.09E-03
			18.00		667.36E-03
			21.00		666.41E-03
			24.00		662.35E-03
			27.00		664.61E-03
			30.00		660.53E-03
			33.00		660.05E-03
			36.00		658.62E-03
			39.00		650.57E-03
			42.00		644.92E-03
			45.00		634.85E-03
			48.00		599.12E-03
			51.00		464.30E-03
			54.00		204.16E-03
			57.00		104.01E-03
			60.00		71.450E-03
			63.00		57.613E-03
			66.00		49.361E-03
			69.00		42.844E-03
			72.00		38.708E-03
			75.00		34.143E-03
			78.00		30.747E-03
			81.00		28.412E-03
			84.00		26.017E-03
			87.00		23.930E-03
			90.00		22.129E-03
			93.00		20.358E-03
			96.00		18.879E-03
			99.00		17.400E-03
			102.00		15.610E-03
			105.00		15.046E-03
			108.00		13.853E-03
			111.00		12.876E-03
			114.00		12.170E-03
			117.00		10.735E-03
			120.00		10.301E-03
			123.00		9.4066E-03
			126.00		8.6288E-03
		END_DATA
	END_SCAN  11
	BEGIN_SCAN  12
		TASK_NAME=MODE_INTERVAL
		PROGRAM=BeamAdjust 1.2
		MEAS_DATE=07-Oct-2010 14:24:51
		LINAC=A4
		MODALITY=X
		INPLANE_AXIS_DIR=TARGET_GUN
		CROSSPLANE_AXIS_DIR=LEFT_RIGHT
		DEPTH_AXIS_DIR=UP_DOWN
		ENERGY=6.00
		SSD=950.00
		WEDGE=None
		FIELD_INPLANE=100.00
		FIELD_CROSSPLANE=100.00
		FIELD_TYPE=RECTANGULAR
		GANTRY=0.00
		GANTRY_UPRIGHT_POSITION=0
		GANTRY_ROTATION=CW
		COLL_ANGLE=90.00
		COLL_OFFSET_INPLANE=0.00
		COLL_OFFSET_CROSSPLANE=0.00
		SCAN_DEVICE=STARCHECK
		ELECTROMETER=2D_ARRAY_INTERFACE
		DETECTOR=STARCHECK
		SCAN_CURVETYPE=INPLANE_PROFILE
		SCAN_DEPTH=0.00
		SCAN_OFFAXIS_CROSSPLANE=50.00
		SCAN_ANGLE=0.00
		SCAN_DIAGONAL=NOT_DIAGONAL
		MEAS_PRESET=TIME_PRESET
		MEAS_TIME=10.000
		MEAS_UNIT=GY
		PRESSURE=1013.25
		TEMPERATURE=20.00
		NORM_TEMPERATURE=20.00
		CORRECTION_FACTOR=1.0000
		CORRECTIONS=AIR_DENSITY_CORR;
		BEGIN_DATA
			-30.00		327.87E-03
			-15.00		338.27E-03
			15.00		347.07E-03
			30.00		349.00E-03
		END_DATA
	END_SCAN  12
	BEGIN_SCAN  13
		TASK_NAME=MODE_INTERVAL
		PROGRAM=BeamAdjust 1.2
		MEAS_DATE=07-Oct-2010 14:24:51
		LINAC=A4
		MODALITY=X
		INPLANE_AXIS_DIR=TARGET_GUN
		CROSSPLANE_AXIS_DIR=LEFT_RIGHT
		DEPTH_AXIS_DIR=UP_DOWN
		ENERGY=6.00
		SSD=950.00
		WEDGE=None
		FIELD_INPLANE=100.00
		FIELD_CROSSPLANE=100.00
		FIELD_TYPE=RECTANGULAR
		GANTRY=0.00
		GANTRY_UPRIGHT_POSITION=0
		GANTRY_ROTATION=CW
		COLL_ANGLE=90.00
		COLL_OFFSET_INPLANE=0.00
		COLL_OFFSET_CROSSPLANE=0.00
		SCAN_DEVICE=STARCHECK
		ELECTROMETER=2D_ARRAY_INTERFACE
		DETECTOR=STARCHECK
		SCAN_CURVETYPE=INPLANE_PROFILE
		SCAN_DEPTH=0.00
		SCAN_OFFAXIS_CROSSPLANE=100.00
		SCAN_ANGLE=0.00
		SCAN_DIAGONAL=NOT_DIAGONAL
		MEAS_PRESET=TIME_PRESET
		MEAS_TIME=10.000
		MEAS_UNIT=GY
		PRESSURE=1013.25
		TEMPERATURE=20.00
		NORM_TEMPERATURE=20.00
		CORRECTION_FACTOR=1.0000
		CORRECTIONS=AIR_DENSITY_CORR;
		BEGIN_DATA
			-60.00		8.1063E-03
			-30.00		9.8062E-03
			30.00		10.727E-03
			60.00		7.4526E-03
		END_DATA
	END_SCAN  13
	BEGIN_SCAN  14
		TASK_NAME=MODE_INTERVAL
		PROGRAM=BeamAdjust 1.2
		MEAS_DATE=07-Oct-2010 14:24:51
		LINAC=A4
		MODALITY=X
		INPLANE_AXIS_DIR=TARGET_GUN
		CROSSPLANE_AXIS_DIR=LEFT_RIGHT
		DEPTH_AXIS_DIR=UP_DOWN
		ENERGY=6.00
		SSD=950.00
		WEDGE=None
		FIELD_INPLANE=100.00
		FIELD_CROSSPLANE=100.00
		FIELD_TYPE=RECTANGULAR
		GANTRY=0.00
		GANTRY_UPRIGHT_POSITION=0
		GANTRY_ROTATION=CW
		COLL_ANGLE=90.00
		COLL_OFFSET_INPLANE=0.00
		COLL_OFFSET_CROSSPLANE=0.00
		SCAN_DEVICE=STARCHECK
		ELECTROMETER=2D_ARRAY_INTERFACE
		DETECTOR=STARCHECK
		SCAN_CURVETYPE=INPLANE_PROFILE
		SCAN_DEPTH=0.00
		SCAN_OFFAXIS_CROSSPLANE=130.00
		SCAN_ANGLE=0.00
		SCAN_DIAGONAL=NOT_DIAGONAL
		MEAS_PRESET=TIME_PRESET
		MEAS_TIME=10.000
		MEAS_UNIT=GY
		PRESSURE=1013.25
		TEMPERATURE=20.00
		NORM_TEMPERATURE=20.00
		CORRECTION_FACTOR=1.0000
		CORRECTIONS=AIR_DENSITY_CORR;
		BEGIN_DATA
			-130.00		2.0915E-03
			-125.00		2.5359E-03
			-120.00		2.1389E-03
			-115.00		2.4929E-03
			-110.00		2.4899E-03
			-105.00		2.3321E-03
			-100.00		3.1531E-03
			-95.00		2.3646E-03
			-90.00		2.6658E-03
			-85.00		3.4540E-03
			-80.00		3.3613E-03
			-75.00		3.4489E-03
			-70.00		3.6788E-03
			-65.00		3.8211E-03
			-60.00		4.4444E-03
			-55.00		4.5967E-03
			-50.00		4.1320E-03
			-45.00		4.4346E-03
			-40.00		4.8610E-03
			-35.00		4.7019E-03
			-30.00		5.0469E-03
			-25.00		5.1049E-03
			-20.00		4.8478E-03
			-15.00		5.2542E-03
			-10.00		4.4953E-03
			-5.00		5.3024E-03
			0.00		5.9391E-03
			5.00		5.7195E-03
			10.00		5.6943E-03
			15.00		5.7055E-03
			20.00		5.3660E-03
			25.00		5.4598E-03
			30.00		4.9583E-03
			35.00		5.4359E-03
			40.00		5.6357E-03
			45.00		5.1287E-03
			50.00		4.8133E-03
			55.00		5.2705E-03
			60.00		4.5663E-03
			65.00		4.5004E-03
			70.00		3.7137E-03
			75.00		4.6017E-03
			80.00		3.9126E-03
			85.00		4.3806E-03
			90.00		3.3134E-03
			95.00		3.5255E-03
			100.00		3.6774E-03
			105.00		2.7061E-03
			110.00		2.8512E-03
			115.00		2.8640E-03
			120.00		2.5708E-03
			125.00		2.5234E-03
			130.00		2.0963E-03
		END_DATA
	END_SCAN  14
	BEGIN_SCAN  15
		TASK_NAME=MODE_INTERVAL
		PROGRAM=BeamAdjust 1.2
		MEAS_DATE=07-Oct-2010 14:24:51
		LINAC=A4
		MODALITY=X
		INPLANE_AXIS_DIR=TARGET_GUN
		CROSSPLANE_AXIS_DIR=LEFT_RIGHT
		DEPTH_AXIS_DIR=UP_DOWN
		ENERGY=6.00
		SSD=950.00
		WEDGE=None
		FIELD_INPLANE=100.00
		FIELD_CROSSPLANE=100.00
		FIELD_TYPE=RECTANGULAR
		GANTRY=0.00
		GANTRY_UPRIGHT_POSITION=0
		GANTRY_ROTATION=CW
		COLL_ANGLE=90.00
		COLL_OFFSET_INPLANE=0.00
		COLL_OFFSET_CROSSPLANE=0.00
		SCAN_DEVICE=STARCHECK
		ELECTROMETER=2D_ARRAY_INTERFACE
		DETECTOR=STARCHECK
		SCAN_CURVETYPE=INPLANE_PROFILE
		SCAN_DEPTH=0.00
		SCAN_OFFAXIS_CROSSPLANE=0.00
		SCAN_ANGLE=0.00
		SCAN_DIAGONAL=FIRST_DIAGONAL
		MEAS_PRESET=TIME_PRESET
		MEAS_TIME=10.000
		MEAS_UNIT=GY
		PRESSURE=1013.25
		TEMPERATURE=20.00
		NORM_TEMPERATURE=20.00
		CORRECTION_FACTOR=1.0000
		CORRECTIONS=AIR_DENSITY_CORR;
		BEGIN_DATA
			-172.40		2.5141E-03
			-169.40		2.8185E-03
			-166.40		3.7557E-03
			-163.40		3.3911E-03
			-160.40		3.8311E-03
			-157.40		4.2167E-03
			-154.40		3.8081E-03
			-151.40		3.7268E-03
			-148.40		4.3462E-03
			-145.40		4.9380E-03
			-142.40		5.3540E-03
			-139.40		5.6775E-03
			-136.40		5.6684E-03
			-133.40		6.5368E-03
			-130.40		6.9612E-03
			-127.40		6.9372E-03
			-124.40		7.9980E-03
			-121.40		8.3171E-03
			-118.40		9.4362E-03
			-115.40		10.557E-03
			-112.40		10.928E-03
			-109.40		11.775E-03
			-106.40		13.138E-03
			-103.40		13.373E-03
			-100.40		14.728E-03
			-97.40		17.073E-03
			-94.40		18.436E-03
			-91.40		20.756E-03
			-88.40		23.007E-03
			-85.40		25.650E-03
			-82.40		29.228E-03
			-79.40		33.685E-03
			-76.40		40.608E-03
			-73.40		57.305E-03
			-70.40		104.46E-03
			-67.40		251.88E-03
			-64.40		435.28E-03
			-61.40		554.31E-03
			-58.40		605.74E-03
			-55.40		627.34E-03
			-52.40		639.06E-03
			-49.40		645.82E-03
			-46.40		649.66E-03
			-43.40		652.91E-03
			-40.40		656.14E-03
			-37.40		661.37E-03
			-34.40		661.25E-03
			-31.40		663.99E-03
			-28.40		662.17E-03
			-25.40		665.50E-03
			-22.40		665.33E-03
			-19.40		665.35E-03
			-16.40		668.38E-03
			-13.40		672.78E-03
			0.00		669.19E-03
			13.40		674.20E-03
			16.40		670.10E-03
			19.40		669.50E-03
			22.40		667.49E-03
			25.40		667.00E-03
			28.40		665.67E-03
			31.40		663.68E-03
			34.40		661.11E-03
			37.40		663.81E-03
			40.40		660.96E-03
			43.40		658.15E-03
			46.40		656.67E-03
			49.40		651.53E-03
			52.40		648.51E-03
			55.40		638.02E-03
			58.40		628.73E-03
			61.40		610.29E-03
			64.40		566.37E-03
			67.40		453.89E-03
			70.40		253.92E-03
			73.40		103.68E-03
			76.40		55.317E-03
			79.40		40.563E-03
			82.40		32.711E-03
			85.40		28.497E-03
			88.40		25.329E-03
			91.40		22.204E-03
			94.40		19.822E-03
			97.40		18.194E-03
			100.40		16.093E-03
			103.40		15.406E-03
			106.40		13.695E-03
			109.40		12.462E-03
			112.40		11.013E-03
			115.40		10.485E-03
			118.40		9.2951E-03
			121.40		8.5998E-03
			124.40		8.1406E-03
			127.40		7.6452E-03
			130.40		7.3146E-03
			133.40		6.3603E-03
			136.40		5.2224E-03
			139.40		5.0323E-03
			142.40		4.3646E-03
			145.40		4.5826E-03
			148.40		4.2760E-03
			151.40		3.7770E-03
			154.40		3.5335E-03
			157.40		3.9781E-03
			160.40		2.3273E-03
			163.40		2.2582E-03
			166.40		2.6684E-03
			169.40		2.3928E-03
			172.40		2.2475E-03
		END_DATA
	END_SCAN  15
	BEGIN_SCAN  16
		TASK_NAME=MODE_INTERVAL
		PROGRAM=BeamAdjust 1.2
		MEAS_DATE=07-Oct-2010 14:24:51
		LINAC=A4
		MODALITY=X
		INPLANE_AXIS_DIR=GUN_TARGET
		CROSSPLANE_AXIS_DIR=LEFT_RIGHT
		DEPTH_AXIS_DIR=UP_DOWN
		ENERGY=6.00
		SSD=950.00
		WEDGE=None
		FIELD_INPLANE=100.00
		FIELD_CROSSPLANE=100.00
		FIELD_TYPE=RECTANGULAR
		GANTRY=0.00
		GANTRY_UPRIGHT_POSITION=0
		GANTRY_ROTATION=CW
		COLL_ANGLE=90.00
		COLL_OFFSET_INPLANE=0.00
		COLL_OFFSET_CROSSPLANE=0.00
		SCAN_DEVICE=STARCHECK
		ELECTROMETER=2D_ARRAY_INTERFACE
		DETECTOR=STARCHECK
		SCAN_CURVETYPE=INPLANE_PROFILE
		SCAN_DEPTH=0.00
		SCAN_OFFAXIS_CROSSPLANE=0.00
		SCAN_ANGLE=0.00
		SCAN_DIAGONAL=SECOND_DIAGONAL
		MEAS_PRESET=TIME_PRESET
		MEAS_TIME=10.000
		MEAS_UNIT=GY
		PRESSURE=1013.25
		TEMPERATURE=20.00
		NORM_TEMPERATURE=20.00
		CORRECTION_FACTOR=1.0000
		CORRECTIONS=AIR_DENSITY_CORR;
		BEGIN_DATA
			-172.40		2.0682E-03
			-169.40		2.8993E-03
			-166.40		2.5359E-03
			-163.40		2.7684E-03
			-160.40		3.1125E-03
			-157.40		3.5038E-03
			-154.40		3.7201E-03
			-151.40		3.7296E-03
			-148.40		4.7047E-03
			-145.40		4.2373E-03
			-142.40		4.8807E-03
			-139.40		5.1048E-03
			-136.40		5.3686E-03
			-133.40		6.2813E-03
			-130.40		6.4525E-03
			-127.40		7.5370E-03
			-124.40		7.9359E-03
			-121.40		8.7175E-03
			-118.40		8.9438E-03
			-115.40		9.6308E-03
			-112.40		10.149E-03
			-109.40		11.424E-03
			-106.40		13.176E-03
			-103.40		13.412E-03
			-100.40		15.208E-03
			-97.40		16.199E-03
			-94.40		17.984E-03
			-91.40		19.950E-03
			-88.40		21.764E-03
			-85.40		24.438E-03
			-82.40		27.889E-03
			-79.40		32.543E-03
			-76.40		38.894E-03
			-73.40		52.508E-03
			-70.40		88.089E-03
			-67.40		214.52E-03
			-64.40		414.11E-03
			-61.40		549.00E-03
			-58.40		607.58E-03
			-55.40		629.34E-03
			-52.40		644.67E-03
			-49.40		651.07E-03
			-46.40		655.35E-03
			-43.40		659.20E-03
			-40.40		661.09E-03
			-37.40		665.00E-03
			-34.40		664.94E-03
			-31.40		666.23E-03
			-28.40		668.77E-03
			-25.40		668.28E-03
			-22.40		666.09E-03
			-19.40		669.77E-03
			-16.40		670.47E-03
			-13.40		673.62E-03
			0.00		669.19E-03
			13.40		673.27E-03
			16.40		670.74E-03
			19.40		667.15E-03
			22.40		663.96E-03
			25.40		663.41E-03
			28.40		662.48E-03
			31.40		661.16E-03
			34.40		658.59E-03
			37.40		658.08E-03
			40.40		657.45E-03
			43.40		655.09E-03
			46.40		653.60E-03
			49.40		649.93E-03
			52.40		643.04E-03
			55.40		635.56E-03
			58.40		629.01E-03
			61.40		610.46E-03
			64.40		571.22E-03
			67.40		467.92E-03
			70.40		272.76E-03
			73.40		110.46E-03
			76.40		57.461E-03
			79.40		40.876E-03
			82.40		34.547E-03
			85.40		29.140E-03
			88.40		25.687E-03
			91.40		23.033E-03
			94.40		20.693E-03
			97.40		18.744E-03
			100.40		16.131E-03
			103.40		14.667E-03
			106.40		14.047E-03
			109.40		11.998E-03
			112.40		11.850E-03
			115.40		10.687E-03
			118.40		9.4497E-03
			121.40		9.0325E-03
			124.40		8.4295E-03
			127.40		7.4028E-03
			130.40		7.6130E-03
			133.40		6.6790E-03
			136.40		5.9988E-03
			139.40		6.2468E-03
			142.40		5.5100E-03
			145.40		5.3038E-03
			148.40		4.6201E-03
			151.40		4.1930E-03
			154.40		4.2436E-03
			157.40		3.7827E-03
			160.40		3.9966E-03
			163.40		3.5580E-03
			166.40		4.1525E-03
			169.40		2.7425E-03
			172.40		2.3283E-03
		END_DATA
	END_SCAN  16
END_SCAN_DATA
