BEGIN_SCAN_DATA
	FORMAT=CC-Export V1.9                  
	FILE_CREATION_DATE=07-Oct-2010 14:25:35
	LAST_MODIFIED=07-Oct-2010 14:25:35
	BEGIN_SCAN  1
		TASK_NAME=MODE_INTERVAL
		PROGRAM=BeamAdjust 1.2
		MEAS_DATE=07-Oct-2010 14:25:35
		LINAC=A4
		MODALITY=X
		INPLANE_AXIS_DIR=TARGET_GUN
		CROSSPLANE_AXIS_DIR=LEFT_RIGHT
		DEPTH_AXIS_DIR=UP_DOWN
		ENERGY=6.00
		SSD=950.00
		WEDGE=None
		FIELD_INPLANE=100.00
		FIELD_CROSSPLANE=100.00
		FIELD_TYPE=RECTANGULAR
		GANTRY=0.00
		GANTRY_UPRIGHT_POSITION=0
		GANTRY_ROTATION=CW
		COLL_ANGLE=90.00
		COLL_OFFSET_INPLANE=0.00
		COLL_OFFSET_CROSSPLANE=0.00
		SCAN_DEVICE=STARCHECK
		ELECTROMETER=2D_ARRAY_INTERFACE
		DETECTOR=STARCHECK
		SCAN_CURVETYPE=CROSSPLANE_PROFILE
		SCAN_DEPTH=0.00
		SCAN_OFFAXIS_INPLANE=-130.00
		SCAN_ANGLE=0.00
		SCAN_DIAGONAL=NOT_DIAGONAL
		MEAS_PRESET=TIME_PRESET
		MEAS_TIME=10.000
		MEAS_UNIT=GY
		PRESSURE=1013.25
		TEMPERATURE=20.00
		NORM_TEMPERATURE=20.00
		CORRECTION_FACTOR=1.0000
		CORRECTIONS=AIR_DENSITY_CORR;
		BEGIN_DATA
			-130.00		2.6322E-03
			-80.00		3.9834E-03
			-40.00		6.7272E-03
			40.00		6.1740E-03
			80.00		3.4178E-03
			130.00		1.8895E-03
		END_DATA
	END_SCAN  1
	BEGIN_SCAN  2
		TASK_NAME=MODE_INTERVAL
		PROGRAM=BeamAdjust 1.2
		MEAS_DATE=07-Oct-2010 14:25:35
		LINAC=A4
		MODALITY=X
		INPLANE_AXIS_DIR=TARGET_GUN
		CROSSPLANE_AXIS_DIR=LEFT_RIGHT
		DEPTH_AXIS_DIR=UP_DOWN
		ENERGY=6.00
		SSD=950.00
		WEDGE=None
		FIELD_INPLANE=100.00
		FIELD_CROSSPLANE=100.00
		FIELD_TYPE=RECTANGULAR
		GANTRY=0.00
		GANTRY_UPRIGHT_POSITION=0
		GANTRY_ROTATION=CW
		COLL_ANGLE=90.00
		COLL_OFFSET_INPLANE=0.00
		COLL_OFFSET_CROSSPLANE=0.00
		SCAN_DEVICE=STARCHECK
		ELECTROMETER=2D_ARRAY_INTERFACE
		DETECTOR=STARCHECK
		SCAN_CURVETYPE=CROSSPLANE_PROFILE
		SCAN_DEPTH=0.00
		SCAN_OFFAXIS_INPLANE=-100.00
		SCAN_ANGLE=0.00
		SCAN_DIAGONAL=NOT_DIAGONAL
		MEAS_PRESET=TIME_PRESET
		MEAS_TIME=10.000
		MEAS_UNIT=GY
		PRESSURE=1013.25
		TEMPERATURE=20.00
		NORM_TEMPERATURE=20.00
		CORRECTION_FACTOR=1.0000
		CORRECTIONS=AIR_DENSITY_CORR;
		BEGIN_DATA
			-60.00		9.9412E-03
			-30.00		13.439E-03
			30.00		13.619E-03
			60.00		9.3488E-03
		END_DATA
	END_SCAN  2
	BEGIN_SCAN  3
		TASK_NAME=MODE_INTERVAL
		PROGRAM=BeamAdjust 1.2
		MEAS_DATE=07-Oct-2010 14:25:35
		LINAC=A4
		MODALITY=X
		INPLANE_AXIS_DIR=TARGET_GUN
		CROSSPLANE_AXIS_DIR=LEFT_RIGHT
		DEPTH_AXIS_DIR=UP_DOWN
		ENERGY=6.00
		SSD=950.00
		WEDGE=None
		FIELD_INPLANE=100.00
		FIELD_CROSSPLANE=100.00
		FIELD_TYPE=RECTANGULAR
		GANTRY=0.00
		GANTRY_UPRIGHT_POSITION=0
		GANTRY_ROTATION=CW
		COLL_ANGLE=90.00
		COLL_OFFSET_INPLANE=0.00
		COLL_OFFSET_CROSSPLANE=0.00
		SCAN_DEVICE=STARCHECK
		ELECTROMETER=2D_ARRAY_INTERFACE
		DETECTOR=STARCHECK
		SCAN_CURVETYPE=CROSSPLANE_PROFILE
		SCAN_DEPTH=0.00
		SCAN_OFFAXIS_INPLANE=-50.00
		SCAN_ANGLE=0.00
		SCAN_DIAGONAL=NOT_DIAGONAL
		MEAS_PRESET=TIME_PRESET
		MEAS_TIME=10.000
		MEAS_UNIT=GY
		PRESSURE=1013.25
		TEMPERATURE=20.00
		NORM_TEMPERATURE=20.00
		CORRECTION_FACTOR=1.0000
		CORRECTIONS=AIR_DENSITY_CORR;
		BEGIN_DATA
			-30.00		140.04E-03
			-15.00		125.38E-03
			15.00		134.84E-03
			30.00		139.36E-03
		END_DATA
	END_SCAN  3
	BEGIN_SCAN  4
		TASK_NAME=MODE_INTERVAL
		PROGRAM=BeamAdjust 1.2
		MEAS_DATE=07-Oct-2010 14:25:35
		LINAC=A4
		MODALITY=X
		INPLANE_AXIS_DIR=TARGET_GUN
		CROSSPLANE_AXIS_DIR=LEFT_RIGHT
		DEPTH_AXIS_DIR=UP_DOWN
		ENERGY=6.00
		SSD=950.00
		WEDGE=None
		FIELD_INPLANE=100.00
		FIELD_CROSSPLANE=100.00
		FIELD_TYPE=RECTANGULAR
		GANTRY=0.00
		GANTRY_UPRIGHT_POSITION=0
		GANTRY_ROTATION=CW
		COLL_ANGLE=90.00
		COLL_OFFSET_INPLANE=0.00
		COLL_OFFSET_CROSSPLANE=0.00
		SCAN_DEVICE=STARCHECK
		ELECTROMETER=2D_ARRAY_INTERFACE
		DETECTOR=STARCHECK
		SCAN_CURVETYPE=CROSSPLANE_PROFILE
		SCAN_DEPTH=0.00
		SCAN_OFFAXIS_INPLANE=0.00
		SCAN_ANGLE=0.00
		SCAN_DIAGONAL=NOT_DIAGONAL
		MEAS_PRESET=TIME_PRESET
		MEAS_TIME=10.000
		MEAS_UNIT=GY
		PRESSURE=1013.25
		TEMPERATURE=20.00
		NORM_TEMPERATURE=20.00
		CORRECTION_FACTOR=1.0000
		CORRECTIONS=AIR_DENSITY_CORR;
		BEGIN_DATA
			-126.00		6.3484E-03
			-123.00		7.3173E-03
			-120.00		7.6816E-03
			-117.00		8.4503E-03
			-114.00		8.6221E-03
			-111.00		9.6678E-03
			-108.00		10.318E-03
			-105.00		10.577E-03
			-102.00		11.468E-03
			-99.00		12.775E-03
			-96.00		13.530E-03
			-93.00		15.360E-03
			-90.00		16.162E-03
			-87.00		17.869E-03
			-84.00		19.886E-03
			-81.00		21.729E-03
			-78.00		23.376E-03
			-75.00		26.837E-03
			-72.00		29.357E-03
			-69.00		34.318E-03
			-66.00		38.877E-03
			-63.00		44.885E-03
			-60.00		54.367E-03
			-57.00		72.001E-03
			-54.00		113.35E-03
			-51.00		287.67E-03
			-48.00		553.25E-03
			-45.00		616.72E-03
			-42.00		636.04E-03
			-39.00		648.73E-03
			-36.00		654.73E-03
			-33.00		655.28E-03
			-30.00		657.22E-03
			-27.00		660.49E-03
			-24.00		662.47E-03
			-21.00		661.94E-03
			-18.00		668.46E-03
			-15.00		668.55E-03
			-12.00		668.14E-03
			-9.00		670.43E-03
			-6.00		669.27E-03
			0.00		667.60E-03
			6.00		671.39E-03
			9.00		670.69E-03
			12.00		668.36E-03
			15.00		667.56E-03
			18.00		666.65E-03
			21.00		665.03E-03
			24.00		661.83E-03
			27.00		665.73E-03
			30.00		663.27E-03
			33.00		661.56E-03
			36.00		657.51E-03
			39.00		651.65E-03
			42.00		640.28E-03
			45.00		615.50E-03
			48.00		527.52E-03
			51.00		235.58E-03
			54.00		102.42E-03
			57.00		68.313E-03
			60.00		53.055E-03
			63.00		44.221E-03
			66.00		38.136E-03
			69.00		32.990E-03
			72.00		29.313E-03
			75.00		26.364E-03
			78.00		23.703E-03
			81.00		21.415E-03
			84.00		19.770E-03
			87.00		17.289E-03
			90.00		16.853E-03
			93.00		14.558E-03
			96.00		13.541E-03
			99.00		12.282E-03
			102.00		11.802E-03
			105.00		10.623E-03
			108.00		10.948E-03
			111.00		8.8406E-03
			114.00		8.6657E-03
			117.00		7.7744E-03
			120.00		7.2217E-03
			123.00		6.8893E-03
			126.00		6.9051E-03
		END_DATA
	END_SCAN  4
	BEGIN_SCAN  5
		TASK_NAME=MODE_INTERVAL
		PROGRAM=BeamAdjust 1.2
		MEAS_DATE=07-Oct-2010 14:25:35
		LINAC=A4
		MODALITY=X
		INPLANE_AXIS_DIR=TARGET_GUN
		CROSSPLANE_AXIS_DIR=LEFT_RIGHT
		DEPTH_AXIS_DIR=UP_DOWN
		ENERGY=6.00
		SSD=950.00
		WEDGE=None
		FIELD_INPLANE=100.00
		FIELD_CROSSPLANE=100.00
		FIELD_TYPE=RECTANGULAR
		GANTRY=0.00
		GANTRY_UPRIGHT_POSITION=0
		GANTRY_ROTATION=CW
		COLL_ANGLE=90.00
		COLL_OFFSET_INPLANE=0.00
		COLL_OFFSET_CROSSPLANE=0.00
		SCAN_DEVICE=STARCHECK
		ELECTROMETER=2D_ARRAY_INTERFACE
		DETECTOR=STARCHECK
		SCAN_CURVETYPE=CROSSPLANE_PROFILE
		SCAN_DEPTH=0.00
		SCAN_OFFAXIS_INPLANE=50.00
		SCAN_ANGLE=0.00
		SCAN_DIAGONAL=NOT_DIAGONAL
		MEAS_PRESET=TIME_PRESET
		MEAS_TIME=10.000
		MEAS_UNIT=GY
		PRESSURE=1013.25
		TEMPERATURE=20.00
		NORM_TEMPERATURE=20.00
		CORRECTION_FACTOR=1.0000
		CORRECTIONS=AIR_DENSITY_CORR;
		BEGIN_DATA
			-30.00		540.17E-03
			-15.00		553.66E-03
			15.00		532.72E-03
			30.00		532.99E-03
		END_DATA
	END_SCAN  5
	BEGIN_SCAN  6
		TASK_NAME=MODE_INTERVAL
		PROGRAM=BeamAdjust 1.2
		MEAS_DATE=07-Oct-2010 14:25:35
		LINAC=A4
		MODALITY=X
		INPLANE_AXIS_DIR=TARGET_GUN
		CROSSPLANE_AXIS_DIR=LEFT_RIGHT
		DEPTH_AXIS_DIR=UP_DOWN
		ENERGY=6.00
		SSD=950.00
		WEDGE=None
		FIELD_INPLANE=100.00
		FIELD_CROSSPLANE=100.00
		FIELD_TYPE=RECTANGULAR
		GANTRY=0.00
		GANTRY_UPRIGHT_POSITION=0
		GANTRY_ROTATION=CW
		COLL_ANGLE=90.00
		COLL_OFFSET_INPLANE=0.00
		COLL_OFFSET_CROSSPLANE=0.00
		SCAN_DEVICE=STARCHECK
		ELECTROMETER=2D_ARRAY_INTERFACE
		DETECTOR=STARCHECK
		SCAN_CURVETYPE=CROSSPLANE_PROFILE
		SCAN_DEPTH=0.00
		SCAN_OFFAXIS_INPLANE=100.00
		SCAN_ANGLE=0.00
		SCAN_DIAGONAL=NOT_DIAGONAL
		MEAS_PRESET=TIME_PRESET
		MEAS_TIME=10.000
		MEAS_UNIT=GY
		PRESSURE=1013.25
		TEMPERATURE=20.00
		NORM_TEMPERATURE=20.00
		CORRECTION_FACTOR=1.0000
		CORRECTIONS=AIR_DENSITY_CORR;
		BEGIN_DATA
			-60.00		10.413E-03
			-30.00		16.052E-03
			30.00		16.287E-03
			60.00		9.7550E-03
		END_DATA
	END_SCAN  6
	BEGIN_SCAN  7
		TASK_NAME=MODE_INTERVAL
		PROGRAM=BeamAdjust 1.2
		MEAS_DATE=07-Oct-2010 14:25:35
		LINAC=A4
		MODALITY=X
		INPLANE_AXIS_DIR=TARGET_GUN
		CROSSPLANE_AXIS_DIR=LEFT_RIGHT
		DEPTH_AXIS_DIR=UP_DOWN
		ENERGY=6.00
		SSD=950.00
		WEDGE=None
		FIELD_INPLANE=100.00
		FIELD_CROSSPLANE=100.00
		FIELD_TYPE=RECTANGULAR
		GANTRY=0.00
		GANTRY_UPRIGHT_POSITION=0
		GANTRY_ROTATION=CW
		COLL_ANGLE=90.00
		COLL_OFFSET_INPLANE=0.00
		COLL_OFFSET_CROSSPLANE=0.00
		SCAN_DEVICE=STARCHECK
		ELECTROMETER=2D_ARRAY_INTERFACE
		DETECTOR=STARCHECK
		SCAN_CURVETYPE=CROSSPLANE_PROFILE
		SCAN_DEPTH=0.00
		SCAN_OFFAXIS_INPLANE=130.00
		SCAN_ANGLE=0.00
		SCAN_DIAGONAL=NOT_DIAGONAL
		MEAS_PRESET=TIME_PRESET
		MEAS_TIME=10.000
		MEAS_UNIT=GY
		PRESSURE=1013.25
		TEMPERATURE=20.00
		NORM_TEMPERATURE=20.00
		CORRECTION_FACTOR=1.0000
		CORRECTIONS=AIR_DENSITY_CORR;
		BEGIN_DATA
			-130.00		1.6654E-03
			-80.00		3.8771E-03
			-40.00		7.7940E-03
			40.00		7.7721E-03
			80.00		4.2649E-03
			130.00		2.2708E-03
		END_DATA
	END_SCAN  7
	BEGIN_SCAN  8
		TASK_NAME=MODE_INTERVAL
		PROGRAM=BeamAdjust 1.2
		MEAS_DATE=07-Oct-2010 14:25:35
		LINAC=A4
		MODALITY=X
		INPLANE_AXIS_DIR=TARGET_GUN
		CROSSPLANE_AXIS_DIR=LEFT_RIGHT
		DEPTH_AXIS_DIR=UP_DOWN
		ENERGY=6.00
		SSD=950.00
		WEDGE=None
		FIELD_INPLANE=100.00
		FIELD_CROSSPLANE=100.00
		FIELD_TYPE=RECTANGULAR
		GANTRY=0.00
		GANTRY_UPRIGHT_POSITION=0
		GANTRY_ROTATION=CW
		COLL_ANGLE=90.00
		COLL_OFFSET_INPLANE=0.00
		COLL_OFFSET_CROSSPLANE=0.00
		SCAN_DEVICE=STARCHECK
		ELECTROMETER=2D_ARRAY_INTERFACE
		DETECTOR=STARCHECK
		SCAN_CURVETYPE=INPLANE_PROFILE
		SCAN_DEPTH=0.00
		SCAN_OFFAXIS_CROSSPLANE=-130.00
		SCAN_ANGLE=0.00
		SCAN_DIAGONAL=NOT_DIAGONAL
		MEAS_PRESET=TIME_PRESET
		MEAS_TIME=10.000
		MEAS_UNIT=GY
		PRESSURE=1013.25
		TEMPERATURE=20.00
		NORM_TEMPERATURE=20.00
		CORRECTION_FACTOR=1.0000
		CORRECTIONS=AIR_DENSITY_CORR;
		BEGIN_DATA
			-130.00		2.6322E-03
			-125.00		2.3993E-03
			-120.00		2.8028E-03
			-115.00		3.2385E-03
			-110.00		3.1657E-03
			-105.00		3.4252E-03
			-100.00		3.6182E-03
			-95.00		4.5387E-03
			-90.00		4.1552E-03
			-85.00		4.1710E-03
			-80.00		4.0962E-03
			-75.00		4.5047E-03
			-70.00		4.6895E-03
			-65.00		4.7904E-03
			-60.00		5.4164E-03
			-55.00		5.8028E-03
			-50.00		4.1456E-03
			-45.00		4.6047E-03
			-40.00		4.7572E-03
			-35.00		5.2103E-03
			-30.00		5.3013E-03
			-25.00		4.9874E-03
			-20.00		5.3417E-03
			-15.00		4.4944E-03
			-10.00		5.6181E-03
			-5.00		5.5544E-03
			0.00		5.9922E-03
			5.00		6.5149E-03
			10.00		6.2078E-03
			15.00		5.6027E-03
			20.00		5.9249E-03
			25.00		4.9154E-03
			30.00		5.5737E-03
			35.00		5.0501E-03
			40.00		4.9869E-03
			45.00		4.5465E-03
			50.00		4.8554E-03
			55.00		4.4750E-03
			60.00		4.4455E-03
			65.00		4.0490E-03
			70.00		3.8379E-03
			75.00		3.9331E-03
			80.00		4.2713E-03
			85.00		3.7094E-03
			90.00		3.4253E-03
			95.00		2.9315E-03
			100.00		3.1684E-03
			105.00		2.5757E-03
			110.00		2.5261E-03
			115.00		2.3247E-03
			120.00		2.3937E-03
			125.00		2.4817E-03
			130.00		1.6654E-03
		END_DATA
	END_SCAN  8
	BEGIN_SCAN  9
		TASK_NAME=MODE_INTERVAL
		PROGRAM=BeamAdjust 1.2
		MEAS_DATE=07-Oct-2010 14:25:35
		LINAC=A4
		MODALITY=X
		INPLANE_AXIS_DIR=TARGET_GUN
		CROSSPLANE_AXIS_DIR=LEFT_RIGHT
		DEPTH_AXIS_DIR=UP_DOWN
		ENERGY=6.00
		SSD=950.00
		WEDGE=None
		FIELD_INPLANE=100.00
		FIELD_CROSSPLANE=100.00
		FIELD_TYPE=RECTANGULAR
		GANTRY=0.00
		GANTRY_UPRIGHT_POSITION=0
		GANTRY_ROTATION=CW
		COLL_ANGLE=90.00
		COLL_OFFSET_INPLANE=0.00
		COLL_OFFSET_CROSSPLANE=0.00
		SCAN_DEVICE=STARCHECK
		ELECTROMETER=2D_ARRAY_INTERFACE
		DETECTOR=STARCHECK
		SCAN_CURVETYPE=INPLANE_PROFILE
		SCAN_DEPTH=0.00
		SCAN_OFFAXIS_CROSSPLANE=-100.00
		SCAN_ANGLE=0.00
		SCAN_DIAGONAL=NOT_DIAGONAL
		MEAS_PRESET=TIME_PRESET
		MEAS_TIME=10.000
		MEAS_UNIT=GY
		PRESSURE=1013.25
		TEMPERATURE=20.00
		NORM_TEMPERATURE=20.00
		CORRECTION_FACTOR=1.0000
		CORRECTIONS=AIR_DENSITY_CORR;
		BEGIN_DATA
			-60.00		8.0278E-03
			-30.00		10.271E-03
			30.00		10.176E-03
			60.00		8.5985E-03
		END_DATA
	END_SCAN  9
	BEGIN_SCAN  10
		TASK_NAME=MODE_INTERVAL
		PROGRAM=BeamAdjust 1.2
		MEAS_DATE=07-Oct-2010 14:25:35
		LINAC=A4
		MODALITY=X
		INPLANE_AXIS_DIR=TARGET_GUN
		CROSSPLANE_AXIS_DIR=LEFT_RIGHT
		DEPTH_AXIS_DIR=UP_DOWN
		ENERGY=6.00
		SSD=950.00
		WEDGE=None
		FIELD_INPLANE=100.00
		FIELD_CROSSPLANE=100.00
		FIELD_TYPE=RECTANGULAR
		GANTRY=0.00
		GANTRY_UPRIGHT_POSITION=0
		GANTRY_ROTATION=CW
		COLL_ANGLE=90.00
		COLL_OFFSET_INPLANE=0.00
		COLL_OFFSET_CROSSPLANE=0.00
		SCAN_DEVICE=STARCHECK
		ELECTROMETER=2D_ARRAY_INTERFACE
		DETECTOR=STARCHECK
		SCAN_CURVETYPE=INPLANE_PROFILE
		SCAN_DEPTH=0.00
		SCAN_OFFAXIS_CROSSPLANE=-50.00
		SCAN_ANGLE=0.00
		SCAN_DIAGONAL=NOT_DIAGONAL
		MEAS_PRESET=TIME_PRESET
		MEAS_TIME=10.000
		MEAS_UNIT=GY
		PRESSURE=1013.25
		TEMPERATURE=20.00
		NORM_TEMPERATURE=20.00
		CORRECTION_FACTOR=1.0000
		CORRECTIONS=AIR_DENSITY_CORR;
		BEGIN_DATA
			-30.00		392.61E-03
			-15.00		390.29E-03
			15.00		381.37E-03
			30.00		371.39E-03
		END_DATA
	END_SCAN  10
	BEGIN_SCAN  11
		TASK_NAME=MODE_INTERVAL
		PROGRAM=BeamAdjust 1.2
		MEAS_DATE=07-Oct-2010 14:25:35
		LINAC=A4
		MODALITY=X
		INPLANE_AXIS_DIR=TARGET_GUN
		CROSSPLANE_AXIS_DIR=LEFT_RIGHT
		DEPTH_AXIS_DIR=UP_DOWN
		ENERGY=6.00
		SSD=950.00
		WEDGE=None
		FIELD_INPLANE=100.00
		FIELD_CROSSPLANE=100.00
		FIELD_TYPE=RECTANGULAR
		GANTRY=0.00
		GANTRY_UPRIGHT_POSITION=0
		GANTRY_ROTATION=CW
		COLL_ANGLE=90.00
		COLL_OFFSET_INPLANE=0.00
		COLL_OFFSET_CROSSPLANE=0.00
		SCAN_DEVICE=STARCHECK
		ELECTROMETER=2D_ARRAY_INTERFACE
		DETECTOR=STARCHECK
		SCAN_CURVETYPE=INPLANE_PROFILE
		SCAN_DEPTH=0.00
		SCAN_OFFAXIS_CROSSPLANE=0.00
		SCAN_ANGLE=0.00
		SCAN_DIAGONAL=NOT_DIAGONAL
		MEAS_PRESET=TIME_PRESET
		MEAS_TIME=10.000
		MEAS_UNIT=GY
		PRESSURE=1013.25
		TEMPERATURE=20.00
		NORM_TEMPERATURE=20.00
		CORRECTION_FACTOR=1.0000
		CORRECTIONS=AIR_DENSITY_CORR;
		BEGIN_DATA
			-126.00		8.6655E-03
			-123.00		8.0900E-03
			-120.00		9.6105E-03
			-117.00		10.180E-03
			-114.00		11.020E-03
			-111.00		11.335E-03
			-108.00		12.910E-03
			-105.00		13.382E-03
			-102.00		14.873E-03
			-99.00		15.280E-03
			-96.00		16.678E-03
			-93.00		18.589E-03
			-90.00		19.957E-03
			-87.00		21.361E-03
			-84.00		23.191E-03
			-81.00		25.133E-03
			-78.00		27.697E-03
			-75.00		29.573E-03
			-72.00		32.363E-03
			-69.00		35.465E-03
			-66.00		40.056E-03
			-63.00		44.253E-03
			-60.00		50.808E-03
			-57.00		59.954E-03
			-54.00		76.928E-03
			-51.00		116.06E-03
			-48.00		251.59E-03
			-45.00		519.33E-03
			-42.00		615.48E-03
			-39.00		639.70E-03
			-36.00		650.78E-03
			-33.00		656.57E-03
			-30.00		662.22E-03
			-27.00		664.52E-03
			-24.00		664.50E-03
			-21.00		663.91E-03
			-18.00		669.36E-03
			-15.00		667.65E-03
			-12.00		670.37E-03
			-9.00		672.74E-03
			-6.00		669.77E-03
			0.00		667.60E-03
			6.00		671.41E-03
			9.00		670.64E-03
			12.00		672.02E-03
			15.00		671.14E-03
			18.00		666.90E-03
			21.00		664.83E-03
			24.00		662.09E-03
			27.00		663.73E-03
			30.00		660.30E-03
			33.00		659.08E-03
			36.00		658.21E-03
			39.00		649.96E-03
			42.00		645.65E-03
			45.00		635.37E-03
			48.00		603.70E-03
			51.00		487.73E-03
			54.00		222.49E-03
			57.00		109.75E-03
			60.00		73.197E-03
			63.00		57.975E-03
			66.00		50.091E-03
			69.00		43.664E-03
			72.00		38.694E-03
			75.00		34.866E-03
			78.00		30.820E-03
			81.00		28.344E-03
			84.00		26.300E-03
			87.00		24.094E-03
			90.00		22.212E-03
			93.00		20.640E-03
			96.00		18.677E-03
			99.00		17.548E-03
			102.00		15.250E-03
			105.00		14.717E-03
			108.00		14.231E-03
			111.00		12.939E-03
			114.00		11.918E-03
			117.00		10.977E-03
			120.00		10.301E-03
			123.00		9.4679E-03
			126.00		8.4369E-03
		END_DATA
	END_SCAN  11
	BEGIN_SCAN  12
		TASK_NAME=MODE_INTERVAL
		PROGRAM=BeamAdjust 1.2
		MEAS_DATE=07-Oct-2010 14:25:35
		LINAC=A4
		MODALITY=X
		INPLANE_AXIS_DIR=TARGET_GUN
		CROSSPLANE_AXIS_DIR=LEFT_RIGHT
		DEPTH_AXIS_DIR=UP_DOWN
		ENERGY=6.00
		SSD=950.00
		WEDGE=None
		FIELD_INPLANE=100.00
		FIELD_CROSSPLANE=100.00
		FIELD_TYPE=RECTANGULAR
		GANTRY=0.00
		GANTRY_UPRIGHT_POSITION=0
		GANTRY_ROTATION=CW
		COLL_ANGLE=90.00
		COLL_OFFSET_INPLANE=0.00
		COLL_OFFSET_CROSSPLANE=0.00
		SCAN_DEVICE=STARCHECK
		ELECTROMETER=2D_ARRAY_INTERFACE
		DETECTOR=STARCHECK
		SCAN_CURVETYPE=INPLANE_PROFILE
		SCAN_DEPTH=0.00
		SCAN_OFFAXIS_CROSSPLANE=50.00
		SCAN_ANGLE=0.00
		SCAN_DIAGONAL=NOT_DIAGONAL
		MEAS_PRESET=TIME_PRESET
		MEAS_TIME=10.000
		MEAS_UNIT=GY
		PRESSURE=1013.25
		TEMPERATURE=20.00
		NORM_TEMPERATURE=20.00
		CORRECTION_FACTOR=1.0000
		CORRECTIONS=AIR_DENSITY_CORR;
		BEGIN_DATA
			-30.00		327.19E-03
			-15.00		338.27E-03
			15.00		346.73E-03
			30.00		349.25E-03
		END_DATA
	END_SCAN  12
	BEGIN_SCAN  13
		TASK_NAME=MODE_INTERVAL
		PROGRAM=BeamAdjust 1.2
		MEAS_DATE=07-Oct-2010 14:25:35
		LINAC=A4
		MODALITY=X
		INPLANE_AXIS_DIR=TARGET_GUN
		CROSSPLANE_AXIS_DIR=LEFT_RIGHT
		DEPTH_AXIS_DIR=UP_DOWN
		ENERGY=6.00
		SSD=950.00
		WEDGE=None
		FIELD_INPLANE=100.00
		FIELD_CROSSPLANE=100.00
		FIELD_TYPE=RECTANGULAR
		GANTRY=0.00
		GANTRY_UPRIGHT_POSITION=0
		GANTRY_ROTATION=CW
		COLL_ANGLE=90.00
		COLL_OFFSET_INPLANE=0.00
		COLL_OFFSET_CROSSPLANE=0.00
		SCAN_DEVICE=STARCHECK
		ELECTROMETER=2D_ARRAY_INTERFACE
		DETECTOR=STARCHECK
		SCAN_CURVETYPE=INPLANE_PROFILE
		SCAN_DEPTH=0.00
		SCAN_OFFAXIS_CROSSPLANE=100.00
		SCAN_ANGLE=0.00
		SCAN_DIAGONAL=NOT_DIAGONAL
		MEAS_PRESET=TIME_PRESET
		MEAS_TIME=10.000
		MEAS_UNIT=GY
		PRESSURE=1013.25
		TEMPERATURE=20.00
		NORM_TEMPERATURE=20.00
		CORRECTION_FACTOR=1.0000
		CORRECTIONS=AIR_DENSITY_CORR;
		BEGIN_DATA
			-60.00		7.9234E-03
			-30.00		10.483E-03
			30.00		10.574E-03
			60.00		7.4853E-03
		END_DATA
	END_SCAN  13
	BEGIN_SCAN  14
		TASK_NAME=MODE_INTERVAL
		PROGRAM=BeamAdjust 1.2
		MEAS_DATE=07-Oct-2010 14:25:35
		LINAC=A4
		MODALITY=X
		INPLANE_AXIS_DIR=TARGET_GUN
		CROSSPLANE_AXIS_DIR=LEFT_RIGHT
		DEPTH_AXIS_DIR=UP_DOWN
		ENERGY=6.00
		SSD=950.00
		WEDGE=None
		FIELD_INPLANE=100.00
		FIELD_CROSSPLANE=100.00
		FIELD_TYPE=RECTANGULAR
		GANTRY=0.00
		GANTRY_UPRIGHT_POSITION=0
		GANTRY_ROTATION=CW
		COLL_ANGLE=90.00
		COLL_OFFSET_INPLANE=0.00
		COLL_OFFSET_CROSSPLANE=0.00
		SCAN_DEVICE=STARCHECK
		ELECTROMETER=2D_ARRAY_INTERFACE
		DETECTOR=STARCHECK
		SCAN_CURVETYPE=INPLANE_PROFILE
		SCAN_DEPTH=0.00
		SCAN_OFFAXIS_CROSSPLANE=130.00
		SCAN_ANGLE=0.00
		SCAN_DIAGONAL=NOT_DIAGONAL
		MEAS_PRESET=TIME_PRESET
		MEAS_TIME=10.000
		MEAS_UNIT=GY
		PRESSURE=1013.25
		TEMPERATURE=20.00
		NORM_TEMPERATURE=20.00
		CORRECTION_FACTOR=1.0000
		CORRECTIONS=AIR_DENSITY_CORR;
		BEGIN_DATA
			-130.00		1.8895E-03
			-125.00		2.0433E-03
			-120.00		2.2098E-03
			-115.00		2.7211E-03
			-110.00		2.3618E-03
			-105.00		2.6448E-03
			-100.00		2.7787E-03
			-95.00		2.9349E-03
			-90.00		2.3089E-03
			-85.00		3.6073E-03
			-80.00		3.3878E-03
			-75.00		3.3218E-03
			-70.00		3.8232E-03
			-65.00		3.6986E-03
			-60.00		4.4473E-03
			-55.00		4.1229E-03
			-50.00		4.1807E-03
			-45.00		5.1503E-03
			-40.00		4.6527E-03
			-35.00		5.0569E-03
			-30.00		5.0410E-03
			-25.00		5.0248E-03
			-20.00		5.1344E-03
			-15.00		5.0224E-03
			-10.00		4.5366E-03
			-5.00		5.4112E-03
			0.00		6.0229E-03
			5.00		5.6169E-03
			10.00		5.7754E-03
			15.00		5.0039E-03
			20.00		5.4933E-03
			25.00		5.6615E-03
			30.00		5.2627E-03
			35.00		5.1620E-03
			40.00		5.7225E-03
			45.00		5.0859E-03
			50.00		4.9445E-03
			55.00		5.1202E-03
			60.00		4.8953E-03
			65.00		4.1403E-03
			70.00		4.3807E-03
			75.00		4.3754E-03
			80.00		4.1966E-03
			85.00		3.9049E-03
			90.00		3.3561E-03
			95.00		3.8595E-03
			100.00		3.3908E-03
			105.00		3.1727E-03
			110.00		2.3767E-03
			115.00		3.1277E-03
			120.00		2.5826E-03
			125.00		2.5352E-03
			130.00		2.2708E-03
		END_DATA
	END_SCAN  14
	BEGIN_SCAN  15
		TASK_NAME=MODE_INTERVAL
		PROGRAM=BeamAdjust 1.2
		MEAS_DATE=07-Oct-2010 14:25:35
		LINAC=A4
		MODALITY=X
		INPLANE_AXIS_DIR=TARGET_GUN
		CROSSPLANE_AXIS_DIR=LEFT_RIGHT
		DEPTH_AXIS_DIR=UP_DOWN
		ENERGY=6.00
		SSD=950.00
		WEDGE=None
		FIELD_INPLANE=100.00
		FIELD_CROSSPLANE=100.00
		FIELD_TYPE=RECTANGULAR
		GANTRY=0.00
		GANTRY_UPRIGHT_POSITION=0
		GANTRY_ROTATION=CW
		COLL_ANGLE=90.00
		COLL_OFFSET_INPLANE=0.00
		COLL_OFFSET_CROSSPLANE=0.00
		SCAN_DEVICE=STARCHECK
		ELECTROMETER=2D_ARRAY_INTERFACE
		DETECTOR=STARCHECK
		SCAN_CURVETYPE=INPLANE_PROFILE
		SCAN_DEPTH=0.00
		SCAN_OFFAXIS_CROSSPLANE=0.00
		SCAN_ANGLE=0.00
		SCAN_DIAGONAL=FIRST_DIAGONAL
		MEAS_PRESET=TIME_PRESET
		MEAS_TIME=10.000
		MEAS_UNIT=GY
		PRESSURE=1013.25
		TEMPERATURE=20.00
		NORM_TEMPERATURE=20.00
		CORRECTION_FACTOR=1.0000
		CORRECTIONS=AIR_DENSITY_CORR;
		BEGIN_DATA
			-172.40		2.5713E-03
			-169.40		2.8814E-03
			-166.40		3.5117E-03
			-163.40		3.4135E-03
			-160.40		3.7521E-03
			-157.40		3.6490E-03
			-154.40		4.0266E-03
			-151.40		3.7892E-03
			-148.40		4.6069E-03
			-145.40		4.7980E-03
			-142.40		5.4965E-03
			-139.40		5.3856E-03
			-136.40		5.8591E-03
			-133.40		6.4625E-03
			-130.40		6.9181E-03
			-127.40		7.0826E-03
			-124.40		7.3352E-03
			-121.40		8.4281E-03
			-118.40		9.4050E-03
			-115.40		9.8835E-03
			-112.40		10.866E-03
			-109.40		11.860E-03
			-106.40		12.880E-03
			-103.40		13.326E-03
			-100.40		14.677E-03
			-97.40		16.872E-03
			-94.40		18.237E-03
			-91.40		20.696E-03
			-88.40		22.700E-03
			-85.40		25.531E-03
			-82.40		28.692E-03
			-79.40		33.216E-03
			-76.40		39.858E-03
			-73.40		55.162E-03
			-70.40		98.333E-03
			-67.40		234.49E-03
			-64.40		416.83E-03
			-61.40		543.00E-03
			-58.40		600.63E-03
			-55.40		625.10E-03
			-52.40		636.34E-03
			-49.40		644.44E-03
			-46.40		648.22E-03
			-43.40		651.45E-03
			-40.40		654.81E-03
			-37.40		660.06E-03
			-34.40		660.20E-03
			-31.40		662.39E-03
			-28.40		661.69E-03
			-25.40		663.96E-03
			-22.40		664.32E-03
			-19.40		663.91E-03
			-16.40		667.61E-03
			-13.40		671.49E-03
			0.00		667.60E-03
			13.40		673.41E-03
			16.40		669.25E-03
			19.40		668.49E-03
			22.40		666.79E-03
			25.40		665.93E-03
			28.40		664.85E-03
			31.40		663.08E-03
			34.40		659.73E-03
			37.40		663.55E-03
			40.40		660.43E-03
			43.40		657.75E-03
			46.40		656.20E-03
			49.40		650.97E-03
			52.40		648.15E-03
			55.40		637.44E-03
			58.40		628.87E-03
			61.40		610.75E-03
			64.40		567.69E-03
			67.40		459.93E-03
			70.40		264.85E-03
			73.40		108.41E-03
			76.40		56.875E-03
			79.40		41.481E-03
			82.40		33.644E-03
			85.40		28.028E-03
			88.40		25.607E-03
			91.40		22.010E-03
			94.40		20.122E-03
			97.40		18.202E-03
			100.40		16.222E-03
			103.40		15.542E-03
			106.40		13.794E-03
			109.40		13.053E-03
			112.40		10.819E-03
			115.40		10.391E-03
			118.40		9.2153E-03
			121.40		9.1746E-03
			124.40		7.8824E-03
			127.40		7.5652E-03
			130.40		7.4345E-03
			133.40		6.1174E-03
			136.40		5.3615E-03
			139.40		4.7400E-03
			142.40		4.5626E-03
			145.40		4.3582E-03
			148.40		4.6755E-03
			151.40		3.5343E-03
			154.40		3.8854E-03
			157.40		3.1302E-03
			160.40		2.4889E-03
			163.40		2.6810E-03
			166.40		2.4958E-03
			169.40		2.5372E-03
			172.40		2.3071E-03
		END_DATA
	END_SCAN  15
	BEGIN_SCAN  16
		TASK_NAME=MODE_INTERVAL
		PROGRAM=BeamAdjust 1.2
		MEAS_DATE=07-Oct-2010 14:25:35
		LINAC=A4
		MODALITY=X
		INPLANE_AXIS_DIR=GUN_TARGET
		CROSSPLANE_AXIS_DIR=LEFT_RIGHT
		DEPTH_AXIS_DIR=UP_DOWN
		ENERGY=6.00
		SSD=950.00
		WEDGE=None
		FIELD_INPLANE=100.00
		FIELD_CROSSPLANE=100.00
		FIELD_TYPE=RECTANGULAR
		GANTRY=0.00
		GANTRY_UPRIGHT_POSITION=0
		GANTRY_ROTATION=CW
		COLL_ANGLE=90.00
		COLL_OFFSET_INPLANE=0.00
		COLL_OFFSET_CROSSPLANE=0.00
		SCAN_DEVICE=STARCHECK
		ELECTROMETER=2D_ARRAY_INTERFACE
		DETECTOR=STARCHECK
		SCAN_CURVETYPE=INPLANE_PROFILE
		SCAN_DEPTH=0.00
		SCAN_OFFAXIS_CROSSPLANE=0.00
		SCAN_ANGLE=0.00
		SCAN_DIAGONAL=SECOND_DIAGONAL
		MEAS_PRESET=TIME_PRESET
		MEAS_TIME=10.000
		MEAS_UNIT=GY
		PRESSURE=1013.25
		TEMPERATURE=20.00
		NORM_TEMPERATURE=20.00
		CORRECTION_FACTOR=1.0000
		CORRECTIONS=AIR_DENSITY_CORR;
		BEGIN_DATA
			-172.40		2.5039E-03
			-169.40		2.6991E-03
			-166.40		2.7073E-03
			-163.40		2.5263E-03
			-160.40		2.9757E-03
			-157.40		3.2900E-03
			-154.40		3.7275E-03
			-151.40		4.1433E-03
			-148.40		3.6873E-03
			-145.40		4.7679E-03
			-142.40		4.4757E-03
			-139.40		5.2977E-03
			-136.40		5.1611E-03
			-133.40		6.5107E-03
			-130.40		6.0815E-03
			-127.40		7.5755E-03
			-124.40		7.7542E-03
			-121.40		8.4185E-03
			-118.40		8.8697E-03
			-115.40		9.8266E-03
			-112.40		10.589E-03
			-109.40		11.523E-03
			-106.40		12.354E-03
			-103.40		13.510E-03
			-100.40		14.972E-03
			-97.40		16.327E-03
			-94.40		17.525E-03
			-91.40		19.863E-03
			-88.40		21.844E-03
			-85.40		24.080E-03
			-82.40		27.812E-03
			-79.40		31.753E-03
			-76.40		38.585E-03
			-73.40		50.805E-03
			-70.40		84.277E-03
			-67.40		199.28E-03
			-64.40		395.35E-03
			-61.40		537.39E-03
			-58.40		602.55E-03
			-55.40		626.32E-03
			-52.40		642.70E-03
			-49.40		648.88E-03
			-46.40		654.03E-03
			-43.40		657.39E-03
			-40.40		659.86E-03
			-37.40		663.48E-03
			-34.40		663.54E-03
			-31.40		665.00E-03
			-28.40		667.75E-03
			-25.40		666.85E-03
			-22.40		665.03E-03
			-19.40		668.12E-03
			-16.40		669.52E-03
			-13.40		672.49E-03
			0.00		667.60E-03
			13.40		672.71E-03
			16.40		669.57E-03
			19.40		666.46E-03
			22.40		663.17E-03
			25.40		662.72E-03
			28.40		661.82E-03
			31.40		660.55E-03
			34.40		657.76E-03
			37.40		657.96E-03
			40.40		656.14E-03
			43.40		654.69E-03
			46.40		652.61E-03
			49.40		649.76E-03
			52.40		642.08E-03
			55.40		635.31E-03
			58.40		628.65E-03
			61.40		610.15E-03
			64.40		572.74E-03
			67.40		471.68E-03
			70.40		283.14E-03
			73.40		115.69E-03
			76.40		58.777E-03
			79.40		41.796E-03
			82.40		34.616E-03
			85.40		29.096E-03
			88.40		25.983E-03
			91.40		23.077E-03
			94.40		20.865E-03
			97.40		18.523E-03
			100.40		16.331E-03
			103.40		14.527E-03
			106.40		14.036E-03
			109.40		12.571E-03
			112.40		11.456E-03
			115.40		10.707E-03
			118.40		9.8899E-03
			121.40		9.0876E-03
			124.40		8.1364E-03
			127.40		7.4133E-03
			130.40		7.4682E-03
			133.40		6.9417E-03
			136.40		5.8003E-03
			139.40		6.1017E-03
			142.40		5.3232E-03
			145.40		5.6340E-03
			148.40		4.4817E-03
			151.40		4.3189E-03
			154.40		3.8562E-03
			157.40		4.1357E-03
			160.40		3.5948E-03
			163.40		4.1092E-03
			166.40		3.1133E-03
			169.40		3.2049E-03
			172.40		2.1141E-03
		END_DATA
	END_SCAN  16
END_SCAN_DATA
