BEGIN_SCAN_DATA
	FORMAT=CC-Export V1.9                  
	FILE_CREATION_DATE=07-Oct-2010 14:26:03
	LAST_MODIFIED=07-Oct-2010 14:26:03
	BEGIN_SCAN  1
		TASK_NAME=MODE_INTERVAL
		PROGRAM=BeamAdjust 1.2
		MEAS_DATE=07-Oct-2010 14:26:03
		LINAC=A4
		MODALITY=X
		INPLANE_AXIS_DIR=TARGET_GUN
		CROSSPLANE_AXIS_DIR=LEFT_RIGHT
		DEPTH_AXIS_DIR=UP_DOWN
		ENERGY=6.00
		SSD=950.00
		WEDGE=None
		FIELD_INPLANE=100.00
		FIELD_CROSSPLANE=100.00
		FIELD_TYPE=RECTANGULAR
		GANTRY=0.00
		GANTRY_UPRIGHT_POSITION=0
		GANTRY_ROTATION=CW
		COLL_ANGLE=90.00
		COLL_OFFSET_INPLANE=0.00
		COLL_OFFSET_CROSSPLANE=0.00
		SCAN_DEVICE=STARCHECK
		ELECTROMETER=2D_ARRAY_INTERFACE
		DETECTOR=STARCHECK
		SCAN_CURVETYPE=CROSSPLANE_PROFILE
		SCAN_DEPTH=0.00
		SCAN_OFFAXIS_INPLANE=-130.00
		SCAN_ANGLE=0.00
		SCAN_DIAGONAL=NOT_DIAGONAL
		MEAS_PRESET=TIME_PRESET
		MEAS_TIME=10.000
		MEAS_UNIT=GY
		PRESSURE=1013.25
		TEMPERATURE=20.00
		NORM_TEMPERATURE=20.00
		CORRECTION_FACTOR=1.0000
		CORRECTIONS=AIR_DENSITY_CORR;
		BEGIN_DATA
			-130.00		2.3366E-03
			-80.00		4.4256E-03
			-40.00		6.4199E-03
			40.00		6.6623E-03
			80.00		3.6579E-03
			130.00		1.9240E-03
		END_DATA
	END_SCAN  1
	BEGIN_SCAN  2
		TASK_NAME=MODE_INTERVAL
		PROGRAM=BeamAdjust 1.2
		MEAS_DATE=07-Oct-2010 14:26:03
		LINAC=A4
		MODALITY=X
		INPLANE_AXIS_DIR=TARGET_GUN
		CROSSPLANE_AXIS_DIR=LEFT_RIGHT
		DEPTH_AXIS_DIR=UP_DOWN
		ENERGY=6.00
		SSD=950.00
		WEDGE=None
		FIELD_INPLANE=100.00
		FIELD_CROSSPLANE=100.00
		FIELD_TYPE=RECTANGULAR
		GANTRY=0.00
		GANTRY_UPRIGHT_POSITION=0
		GANTRY_ROTATION=CW
		COLL_ANGLE=90.00
		COLL_OFFSET_INPLANE=0.00
		COLL_OFFSET_CROSSPLANE=0.00
		SCAN_DEVICE=STARCHECK
		ELECTROMETER=2D_ARRAY_INTERFACE
		DETECTOR=STARCHECK
		SCAN_CURVETYPE=CROSSPLANE_PROFILE
		SCAN_DEPTH=0.00
		SCAN_OFFAXIS_INPLANE=-100.00
		SCAN_ANGLE=0.00
		SCAN_DIAGONAL=NOT_DIAGONAL
		MEAS_PRESET=TIME_PRESET
		MEAS_TIME=10.000
		MEAS_UNIT=GY
		PRESSURE=1013.25
		TEMPERATURE=20.00
		NORM_TEMPERATURE=20.00
		CORRECTION_FACTOR=1.0000
		CORRECTIONS=AIR_DENSITY_CORR;
		BEGIN_DATA
			-60.00		9.5072E-03
			-30.00		13.530E-03
			30.00		13.737E-03
			60.00		9.3355E-03
		END_DATA
	END_SCAN  2
	BEGIN_SCAN  3
		TASK_NAME=MODE_INTERVAL
		PROGRAM=BeamAdjust 1.2
		MEAS_DATE=07-Oct-2010 14:26:03
		LINAC=A4
		MODALITY=X
		INPLANE_AXIS_DIR=TARGET_GUN
		CROSSPLANE_AXIS_DIR=LEFT_RIGHT
		DEPTH_AXIS_DIR=UP_DOWN
		ENERGY=6.00
		SSD=950.00
		WEDGE=None
		FIELD_INPLANE=100.00
		FIELD_CROSSPLANE=100.00
		FIELD_TYPE=RECTANGULAR
		GANTRY=0.00
		GANTRY_UPRIGHT_POSITION=0
		GANTRY_ROTATION=CW
		COLL_ANGLE=90.00
		COLL_OFFSET_INPLANE=0.00
		COLL_OFFSET_CROSSPLANE=0.00
		SCAN_DEVICE=STARCHECK
		ELECTROMETER=2D_ARRAY_INTERFACE
		DETECTOR=STARCHECK
		SCAN_CURVETYPE=CROSSPLANE_PROFILE
		SCAN_DEPTH=0.00
		SCAN_OFFAXIS_INPLANE=-50.00
		SCAN_ANGLE=0.00
		SCAN_DIAGONAL=NOT_DIAGONAL
		MEAS_PRESET=TIME_PRESET
		MEAS_TIME=10.000
		MEAS_UNIT=GY
		PRESSURE=1013.25
		TEMPERATURE=20.00
		NORM_TEMPERATURE=20.00
		CORRECTION_FACTOR=1.0000
		CORRECTIONS=AIR_DENSITY_CORR;
		BEGIN_DATA
			-30.00		128.39E-03
			-15.00		116.62E-03
			15.00		124.31E-03
			30.00		127.46E-03
		END_DATA
	END_SCAN  3
	BEGIN_SCAN  4
		TASK_NAME=MODE_INTERVAL
		PROGRAM=BeamAdjust 1.2
		MEAS_DATE=07-Oct-2010 14:26:03
		LINAC=A4
		MODALITY=X
		INPLANE_AXIS_DIR=TARGET_GUN
		CROSSPLANE_AXIS_DIR=LEFT_RIGHT
		DEPTH_AXIS_DIR=UP_DOWN
		ENERGY=6.00
		SSD=950.00
		WEDGE=None
		FIELD_INPLANE=100.00
		FIELD_CROSSPLANE=100.00
		FIELD_TYPE=RECTANGULAR
		GANTRY=0.00
		GANTRY_UPRIGHT_POSITION=0
		GANTRY_ROTATION=CW
		COLL_ANGLE=90.00
		COLL_OFFSET_INPLANE=0.00
		COLL_OFFSET_CROSSPLANE=0.00
		SCAN_DEVICE=STARCHECK
		ELECTROMETER=2D_ARRAY_INTERFACE
		DETECTOR=STARCHECK
		SCAN_CURVETYPE=CROSSPLANE_PROFILE
		SCAN_DEPTH=0.00
		SCAN_OFFAXIS_INPLANE=0.00
		SCAN_ANGLE=0.00
		SCAN_DIAGONAL=NOT_DIAGONAL
		MEAS_PRESET=TIME_PRESET
		MEAS_TIME=10.000
		MEAS_UNIT=GY
		PRESSURE=1013.25
		TEMPERATURE=20.00
		NORM_TEMPERATURE=20.00
		CORRECTION_FACTOR=1.0000
		CORRECTIONS=AIR_DENSITY_CORR;
		BEGIN_DATA
			-126.00		5.9992E-03
			-123.00		7.4114E-03
			-120.00		7.5790E-03
			-117.00		8.2502E-03
			-114.00		8.8427E-03
			-111.00		8.9287E-03
			-108.00		10.776E-03
			-105.00		10.469E-03
			-102.00		11.900E-03
			-99.00		12.406E-03
			-96.00		13.779E-03
			-93.00		15.079E-03
			-90.00		16.343E-03
			-87.00		17.744E-03
			-84.00		20.029E-03
			-81.00		21.707E-03
			-78.00		23.447E-03
			-75.00		26.978E-03
			-72.00		29.292E-03
			-69.00		33.791E-03
			-66.00		39.343E-03
			-63.00		44.876E-03
			-60.00		54.296E-03
			-57.00		72.126E-03
			-54.00		112.75E-03
			-51.00		287.45E-03
			-48.00		551.97E-03
			-45.00		615.67E-03
			-42.00		635.06E-03
			-39.00		647.77E-03
			-36.00		653.85E-03
			-33.00		654.23E-03
			-30.00		656.19E-03
			-27.00		658.74E-03
			-24.00		661.81E-03
			-21.00		661.54E-03
			-18.00		667.09E-03
			-15.00		667.86E-03
			-12.00		666.95E-03
			-9.00		669.39E-03
			-6.00		668.02E-03
			0.00		667.36E-03
			6.00		670.61E-03
			9.00		669.74E-03
			12.00		667.75E-03
			15.00		666.41E-03
			18.00		665.94E-03
			21.00		663.82E-03
			24.00		660.28E-03
			27.00		664.98E-03
			30.00		662.32E-03
			33.00		660.57E-03
			36.00		656.83E-03
			39.00		650.57E-03
			42.00		639.28E-03
			45.00		614.45E-03
			48.00		526.79E-03
			51.00		235.63E-03
			54.00		102.09E-03
			57.00		68.489E-03
			60.00		52.709E-03
			63.00		44.252E-03
			66.00		37.425E-03
			69.00		33.375E-03
			72.00		29.239E-03
			75.00		26.339E-03
			78.00		23.221E-03
			81.00		21.526E-03
			84.00		19.256E-03
			87.00		17.579E-03
			90.00		16.529E-03
			93.00		14.896E-03
			96.00		13.367E-03
			99.00		12.288E-03
			102.00		11.876E-03
			105.00		10.362E-03
			108.00		10.275E-03
			111.00		9.1974E-03
			114.00		8.3588E-03
			117.00		8.0612E-03
			120.00		6.9726E-03
			123.00		6.9841E-03
			126.00		6.7320E-03
		END_DATA
	END_SCAN  4
	BEGIN_SCAN  5
		TASK_NAME=MODE_INTERVAL
		PROGRAM=BeamAdjust 1.2
		MEAS_DATE=07-Oct-2010 14:26:03
		LINAC=A4
		MODALITY=X
		INPLANE_AXIS_DIR=TARGET_GUN
		CROSSPLANE_AXIS_DIR=LEFT_RIGHT
		DEPTH_AXIS_DIR=UP_DOWN
		ENERGY=6.00
		SSD=950.00
		WEDGE=None
		FIELD_INPLANE=100.00
		FIELD_CROSSPLANE=100.00
		FIELD_TYPE=RECTANGULAR
		GANTRY=0.00
		GANTRY_UPRIGHT_POSITION=0
		GANTRY_ROTATION=CW
		COLL_ANGLE=90.00
		COLL_OFFSET_INPLANE=0.00
		COLL_OFFSET_CROSSPLANE=0.00
		SCAN_DEVICE=STARCHECK
		ELECTROMETER=2D_ARRAY_INTERFACE
		DETECTOR=STARCHECK
		SCAN_CURVETYPE=CROSSPLANE_PROFILE
		SCAN_DEPTH=0.00
		SCAN_OFFAXIS_INPLANE=50.00
		SCAN_ANGLE=0.00
		SCAN_DIAGONAL=NOT_DIAGONAL
		MEAS_PRESET=TIME_PRESET
		MEAS_TIME=10.000
		MEAS_UNIT=GY
		PRESSURE=1013.25
		TEMPERATURE=20.00
		NORM_TEMPERATURE=20.00
		CORRECTION_FACTOR=1.0000
		CORRECTIONS=AIR_DENSITY_CORR;
		BEGIN_DATA
			-30.00		555.37E-03
			-15.00		567.55E-03
			15.00		549.64E-03
			30.00		549.62E-03
		END_DATA
	END_SCAN  5
	BEGIN_SCAN  6
		TASK_NAME=MODE_INTERVAL
		PROGRAM=BeamAdjust 1.2
		MEAS_DATE=07-Oct-2010 14:26:03
		LINAC=A4
		MODALITY=X
		INPLANE_AXIS_DIR=TARGET_GUN
		CROSSPLANE_AXIS_DIR=LEFT_RIGHT
		DEPTH_AXIS_DIR=UP_DOWN
		ENERGY=6.00
		SSD=950.00
		WEDGE=None
		FIELD_INPLANE=100.00
		FIELD_CROSSPLANE=100.00
		FIELD_TYPE=RECTANGULAR
		GANTRY=0.00
		GANTRY_UPRIGHT_POSITION=0
		GANTRY_ROTATION=CW
		COLL_ANGLE=90.00
		COLL_OFFSET_INPLANE=0.00
		COLL_OFFSET_CROSSPLANE=0.00
		SCAN_DEVICE=STARCHECK
		ELECTROMETER=2D_ARRAY_INTERFACE
		DETECTOR=STARCHECK
		SCAN_CURVETYPE=CROSSPLANE_PROFILE
		SCAN_DEPTH=0.00
		SCAN_OFFAXIS_INPLANE=100.00
		SCAN_ANGLE=0.00
		SCAN_DIAGONAL=NOT_DIAGONAL
		MEAS_PRESET=TIME_PRESET
		MEAS_TIME=10.000
		MEAS_UNIT=GY
		PRESSURE=1013.25
		TEMPERATURE=20.00
		NORM_TEMPERATURE=20.00
		CORRECTION_FACTOR=1.0000
		CORRECTIONS=AIR_DENSITY_CORR;
		BEGIN_DATA
			-60.00		10.779E-03
			-30.00		16.045E-03
			30.00		16.404E-03
			60.00		9.7195E-03
		END_DATA
	END_SCAN  6
	BEGIN_SCAN  7
		TASK_NAME=MODE_INTERVAL
		PROGRAM=BeamAdjust 1.2
		MEAS_DATE=07-Oct-2010 14:26:03
		LINAC=A4
		MODALITY=X
		INPLANE_AXIS_DIR=TARGET_GUN
		CROSSPLANE_AXIS_DIR=LEFT_RIGHT
		DEPTH_AXIS_DIR=UP_DOWN
		ENERGY=6.00
		SSD=950.00
		WEDGE=None
		FIELD_INPLANE=100.00
		FIELD_CROSSPLANE=100.00
		FIELD_TYPE=RECTANGULAR
		GANTRY=0.00
		GANTRY_UPRIGHT_POSITION=0
		GANTRY_ROTATION=CW
		COLL_ANGLE=90.00
		COLL_OFFSET_INPLANE=0.00
		COLL_OFFSET_CROSSPLANE=0.00
		SCAN_DEVICE=STARCHECK
		ELECTROMETER=2D_ARRAY_INTERFACE
		DETECTOR=STARCHECK
		SCAN_CURVETYPE=CROSSPLANE_PROFILE
		SCAN_DEPTH=0.00
		SCAN_OFFAXIS_INPLANE=130.00
		SCAN_ANGLE=0.00
		SCAN_DIAGONAL=NOT_DIAGONAL
		MEAS_PRESET=TIME_PRESET
		MEAS_TIME=10.000
		MEAS_UNIT=GY
		PRESSURE=1013.25
		TEMPERATURE=20.00
		NORM_TEMPERATURE=20.00
		CORRECTION_FACTOR=1.0000
		CORRECTIONS=AIR_DENSITY_CORR;
		BEGIN_DATA
			-130.00		1.7203E-03
			-80.00		3.9619E-03
			-40.00		8.0873E-03
			40.00		7.8106E-03
			80.00		4.2783E-03
			130.00		1.9307E-03
		END_DATA
	END_SCAN  7
	BEGIN_SCAN  8
		TASK_NAME=MODE_INTERVAL
		PROGRAM=BeamAdjust 1.2
		MEAS_DATE=07-Oct-2010 14:26:03
		LINAC=A4
		MODALITY=X
		INPLANE_AXIS_DIR=TARGET_GUN
		CROSSPLANE_AXIS_DIR=LEFT_RIGHT
		DEPTH_AXIS_DIR=UP_DOWN
		ENERGY=6.00
		SSD=950.00
		WEDGE=None
		FIELD_INPLANE=100.00
		FIELD_CROSSPLANE=100.00
		FIELD_TYPE=RECTANGULAR
		GANTRY=0.00
		GANTRY_UPRIGHT_POSITION=0
		GANTRY_ROTATION=CW
		COLL_ANGLE=90.00
		COLL_OFFSET_INPLANE=0.00
		COLL_OFFSET_CROSSPLANE=0.00
		SCAN_DEVICE=STARCHECK
		ELECTROMETER=2D_ARRAY_INTERFACE
		DETECTOR=STARCHECK
		SCAN_CURVETYPE=INPLANE_PROFILE
		SCAN_DEPTH=0.00
		SCAN_OFFAXIS_CROSSPLANE=-130.00
		SCAN_ANGLE=0.00
		SCAN_DIAGONAL=NOT_DIAGONAL
		MEAS_PRESET=TIME_PRESET
		MEAS_TIME=10.000
		MEAS_UNIT=GY
		PRESSURE=1013.25
		TEMPERATURE=20.00
		NORM_TEMPERATURE=20.00
		CORRECTION_FACTOR=1.0000
		CORRECTIONS=AIR_DENSITY_CORR;
		BEGIN_DATA
			-130.00		2.3366E-03
			-125.00		2.7701E-03
			-120.00		2.9615E-03
			-115.00		2.9679E-03
			-110.00		3.1554E-03
			-105.00		3.2168E-03
			-100.00		3.9424E-03
			-95.00		3.8582E-03
			-90.00		4.3802E-03
			-85.00		4.1725E-03
			-80.00		3.8959E-03
			-75.00		4.6683E-03
			-70.00		4.6109E-03
			-65.00		4.9561E-03
			-60.00		4.8391E-03
			-55.00		6.2537E-03
			-50.00		4.1278E-03
			-45.00		4.4622E-03
			-40.00		4.7661E-03
			-35.00		5.0314E-03
			-30.00		5.2805E-03
			-25.00		4.9236E-03
			-20.00		5.2692E-03
			-15.00		4.6777E-03
			-10.00		5.3157E-03
			-5.00		5.7656E-03
			0.00		5.9583E-03
			5.00		6.6995E-03
			10.00		5.7159E-03
			15.00		5.8490E-03
			20.00		5.9667E-03
			25.00		4.8752E-03
			30.00		5.6752E-03
			35.00		5.5896E-03
			40.00		4.6961E-03
			45.00		4.8681E-03
			50.00		4.6531E-03
			55.00		4.6622E-03
			60.00		4.4737E-03
			65.00		4.0282E-03
			70.00		3.8676E-03
			75.00		3.8885E-03
			80.00		3.7543E-03
			85.00		3.8876E-03
			90.00		3.5575E-03
			95.00		3.0767E-03
			100.00		3.4508E-03
			105.00		2.1572E-03
			110.00		2.7796E-03
			115.00		2.3455E-03
			120.00		2.3268E-03
			125.00		2.5664E-03
			130.00		1.7203E-03
		END_DATA
	END_SCAN  8
	BEGIN_SCAN  9
		TASK_NAME=MODE_INTERVAL
		PROGRAM=BeamAdjust 1.2
		MEAS_DATE=07-Oct-2010 14:26:03
		LINAC=A4
		MODALITY=X
		INPLANE_AXIS_DIR=TARGET_GUN
		CROSSPLANE_AXIS_DIR=LEFT_RIGHT
		DEPTH_AXIS_DIR=UP_DOWN
		ENERGY=6.00
		SSD=950.00
		WEDGE=None
		FIELD_INPLANE=100.00
		FIELD_CROSSPLANE=100.00
		FIELD_TYPE=RECTANGULAR
		GANTRY=0.00
		GANTRY_UPRIGHT_POSITION=0
		GANTRY_ROTATION=CW
		COLL_ANGLE=90.00
		COLL_OFFSET_INPLANE=0.00
		COLL_OFFSET_CROSSPLANE=0.00
		SCAN_DEVICE=STARCHECK
		ELECTROMETER=2D_ARRAY_INTERFACE
		DETECTOR=STARCHECK
		SCAN_CURVETYPE=INPLANE_PROFILE
		SCAN_DEPTH=0.00
		SCAN_OFFAXIS_CROSSPLANE=-100.00
		SCAN_ANGLE=0.00
		SCAN_DIAGONAL=NOT_DIAGONAL
		MEAS_PRESET=TIME_PRESET
		MEAS_TIME=10.000
		MEAS_UNIT=GY
		PRESSURE=1013.25
		TEMPERATURE=20.00
		NORM_TEMPERATURE=20.00
		CORRECTION_FACTOR=1.0000
		CORRECTIONS=AIR_DENSITY_CORR;
		BEGIN_DATA
			-60.00		8.0678E-03
			-30.00		10.003E-03
			30.00		10.310E-03
			60.00		7.9260E-03
		END_DATA
	END_SCAN  9
	BEGIN_SCAN  10
		TASK_NAME=MODE_INTERVAL
		PROGRAM=BeamAdjust 1.2
		MEAS_DATE=07-Oct-2010 14:26:03
		LINAC=A4
		MODALITY=X
		INPLANE_AXIS_DIR=TARGET_GUN
		CROSSPLANE_AXIS_DIR=LEFT_RIGHT
		DEPTH_AXIS_DIR=UP_DOWN
		ENERGY=6.00
		SSD=950.00
		WEDGE=None
		FIELD_INPLANE=100.00
		FIELD_CROSSPLANE=100.00
		FIELD_TYPE=RECTANGULAR
		GANTRY=0.00
		GANTRY_UPRIGHT_POSITION=0
		GANTRY_ROTATION=CW
		COLL_ANGLE=90.00
		COLL_OFFSET_INPLANE=0.00
		COLL_OFFSET_CROSSPLANE=0.00
		SCAN_DEVICE=STARCHECK
		ELECTROMETER=2D_ARRAY_INTERFACE
		DETECTOR=STARCHECK
		SCAN_CURVETYPE=INPLANE_PROFILE
		SCAN_DEPTH=0.00
		SCAN_OFFAXIS_CROSSPLANE=-50.00
		SCAN_ANGLE=0.00
		SCAN_DIAGONAL=NOT_DIAGONAL
		MEAS_PRESET=TIME_PRESET
		MEAS_TIME=10.000
		MEAS_UNIT=GY
		PRESSURE=1013.25
		TEMPERATURE=20.00
		NORM_TEMPERATURE=20.00
		CORRECTION_FACTOR=1.0000
		CORRECTIONS=AIR_DENSITY_CORR;
		BEGIN_DATA
			-30.00		391.14E-03
			-15.00		389.79E-03
			15.00		380.33E-03
			30.00		371.17E-03
		END_DATA
	END_SCAN  10
	BEGIN_SCAN  11
		TASK_NAME=MODE_INTERVAL
		PROGRAM=BeamAdjust 1.2
		MEAS_DATE=07-Oct-2010 14:26:03
		LINAC=A4
		MODALITY=X
		INPLANE_AXIS_DIR=TARGET_GUN
		CROSSPLANE_AXIS_DIR=LEFT_RIGHT
		DEPTH_AXIS_DIR=UP_DOWN
		ENERGY=6.00
		SSD=950.00
		WEDGE=None
		FIELD_INPLANE=100.00
		FIELD_CROSSPLANE=100.00
		FIELD_TYPE=RECTANGULAR
		GANTRY=0.00
		GANTRY_UPRIGHT_POSITION=0
		GANTRY_ROTATION=CW
		COLL_ANGLE=90.00
		COLL_OFFSET_INPLANE=0.00
		COLL_OFFSET_CROSSPLANE=0.00
		SCAN_DEVICE=STARCHECK
		ELECTROMETER=2D_ARRAY_INTERFACE
		DETECTOR=STARCHECK
		SCAN_CURVETYPE=INPLANE_PROFILE
		SCAN_DEPTH=0.00
		SCAN_OFFAXIS_CROSSPLANE=0.00
		SCAN_ANGLE=0.00
		SCAN_DIAGONAL=NOT_DIAGONAL
		MEAS_PRESET=TIME_PRESET
		MEAS_TIME=10.000
		MEAS_UNIT=GY
		PRESSURE=1013.25
		TEMPERATURE=20.00
		NORM_TEMPERATURE=20.00
		CORRECTION_FACTOR=1.0000
		CORRECTIONS=AIR_DENSITY_CORR;
		BEGIN_DATA
			-126.00		8.1086E-03
			-123.00		8.3416E-03
			-120.00		9.1926E-03
			-117.00		10.494E-03
			-114.00		10.887E-03
			-111.00		11.471E-03
			-108.00		12.499E-03
			-105.00		13.603E-03
			-102.00		14.923E-03
			-99.00		15.113E-03
			-96.00		16.420E-03
			-93.00		18.435E-03
			-90.00		19.668E-03
			-87.00		21.146E-03
			-84.00		23.076E-03
			-81.00		25.201E-03
			-78.00		27.492E-03
			-75.00		29.705E-03
			-72.00		32.145E-03
			-69.00		35.020E-03
			-66.00		39.216E-03
			-63.00		44.091E-03
			-60.00		49.734E-03
			-57.00		59.317E-03
			-54.00		74.107E-03
			-51.00		109.66E-03
			-48.00		228.64E-03
			-45.00		496.56E-03
			-42.00		609.85E-03
			-39.00		636.97E-03
			-36.00		648.78E-03
			-33.00		654.91E-03
			-30.00		661.00E-03
			-27.00		662.98E-03
			-24.00		663.35E-03
			-21.00		662.53E-03
			-18.00		667.87E-03
			-15.00		665.95E-03
			-12.00		668.81E-03
			-9.00		671.29E-03
			-6.00		668.86E-03
			0.00		667.36E-03
			6.00		670.12E-03
			9.00		669.95E-03
			12.00		670.61E-03
			15.00		670.80E-03
			18.00		665.85E-03
			21.00		664.27E-03
			24.00		660.96E-03
			27.00		663.39E-03
			30.00		659.89E-03
			33.00		658.35E-03
			36.00		658.08E-03
			39.00		649.78E-03
			42.00		645.64E-03
			45.00		636.21E-03
			48.00		607.14E-03
			51.00		509.60E-03
			54.00		243.26E-03
			57.00		116.14E-03
			60.00		75.418E-03
			63.00		59.079E-03
			66.00		50.377E-03
			69.00		44.407E-03
			72.00		39.306E-03
			75.00		34.899E-03
			78.00		31.396E-03
			81.00		28.556E-03
			84.00		26.870E-03
			87.00		24.246E-03
			90.00		22.537E-03
			93.00		20.288E-03
			96.00		19.279E-03
			99.00		17.477E-03
			102.00		15.897E-03
			105.00		14.581E-03
			108.00		14.104E-03
			111.00		13.426E-03
			114.00		11.974E-03
			117.00		11.083E-03
			120.00		10.174E-03
			123.00		9.6322E-03
			126.00		8.4953E-03
		END_DATA
	END_SCAN  11
	BEGIN_SCAN  12
		TASK_NAME=MODE_INTERVAL
		PROGRAM=BeamAdjust 1.2
		MEAS_DATE=07-Oct-2010 14:26:03
		LINAC=A4
		MODALITY=X
		INPLANE_AXIS_DIR=TARGET_GUN
		CROSSPLANE_AXIS_DIR=LEFT_RIGHT
		DEPTH_AXIS_DIR=UP_DOWN
		ENERGY=6.00
		SSD=950.00
		WEDGE=None
		FIELD_INPLANE=100.00
		FIELD_CROSSPLANE=100.00
		FIELD_TYPE=RECTANGULAR
		GANTRY=0.00
		GANTRY_UPRIGHT_POSITION=0
		GANTRY_ROTATION=CW
		COLL_ANGLE=90.00
		COLL_OFFSET_INPLANE=0.00
		COLL_OFFSET_CROSSPLANE=0.00
		SCAN_DEVICE=STARCHECK
		ELECTROMETER=2D_ARRAY_INTERFACE
		DETECTOR=STARCHECK
		SCAN_CURVETYPE=INPLANE_PROFILE
		SCAN_DEPTH=0.00
		SCAN_OFFAXIS_CROSSPLANE=50.00
		SCAN_ANGLE=0.00
		SCAN_DIAGONAL=NOT_DIAGONAL
		MEAS_PRESET=TIME_PRESET
		MEAS_TIME=10.000
		MEAS_UNIT=GY
		PRESSURE=1013.25
		TEMPERATURE=20.00
		NORM_TEMPERATURE=20.00
		CORRECTION_FACTOR=1.0000
		CORRECTIONS=AIR_DENSITY_CORR;
		BEGIN_DATA
			-30.00		326.77E-03
			-15.00		337.43E-03
			15.00		346.60E-03
			30.00		348.80E-03
		END_DATA
	END_SCAN  12
	BEGIN_SCAN  13
		TASK_NAME=MODE_INTERVAL
		PROGRAM=BeamAdjust 1.2
		MEAS_DATE=07-Oct-2010 14:26:03
		LINAC=A4
		MODALITY=X
		INPLANE_AXIS_DIR=TARGET_GUN
		CROSSPLANE_AXIS_DIR=LEFT_RIGHT
		DEPTH_AXIS_DIR=UP_DOWN
		ENERGY=6.00
		SSD=950.00
		WEDGE=None
		FIELD_INPLANE=100.00
		FIELD_CROSSPLANE=100.00
		FIELD_TYPE=RECTANGULAR
		GANTRY=0.00
		GANTRY_UPRIGHT_POSITION=0
		GANTRY_ROTATION=CW
		COLL_ANGLE=90.00
		COLL_OFFSET_INPLANE=0.00
		COLL_OFFSET_CROSSPLANE=0.00
		SCAN_DEVICE=STARCHECK
		ELECTROMETER=2D_ARRAY_INTERFACE
		DETECTOR=STARCHECK
		SCAN_CURVETYPE=INPLANE_PROFILE
		SCAN_DEPTH=0.00
		SCAN_OFFAXIS_CROSSPLANE=100.00
		SCAN_ANGLE=0.00
		SCAN_DIAGONAL=NOT_DIAGONAL
		MEAS_PRESET=TIME_PRESET
		MEAS_TIME=10.000
		MEAS_UNIT=GY
		PRESSURE=1013.25
		TEMPERATURE=20.00
		NORM_TEMPERATURE=20.00
		CORRECTION_FACTOR=1.0000
		CORRECTIONS=AIR_DENSITY_CORR;
		BEGIN_DATA
			-60.00		7.7390E-03
			-30.00		9.8374E-03
			30.00		11.009E-03
			60.00		7.6398E-03
		END_DATA
	END_SCAN  13
	BEGIN_SCAN  14
		TASK_NAME=MODE_INTERVAL
		PROGRAM=BeamAdjust 1.2
		MEAS_DATE=07-Oct-2010 14:26:03
		LINAC=A4
		MODALITY=X
		INPLANE_AXIS_DIR=TARGET_GUN
		CROSSPLANE_AXIS_DIR=LEFT_RIGHT
		DEPTH_AXIS_DIR=UP_DOWN
		ENERGY=6.00
		SSD=950.00
		WEDGE=None
		FIELD_INPLANE=100.00
		FIELD_CROSSPLANE=100.00
		FIELD_TYPE=RECTANGULAR
		GANTRY=0.00
		GANTRY_UPRIGHT_POSITION=0
		GANTRY_ROTATION=CW
		COLL_ANGLE=90.00
		COLL_OFFSET_INPLANE=0.00
		COLL_OFFSET_CROSSPLANE=0.00
		SCAN_DEVICE=STARCHECK
		ELECTROMETER=2D_ARRAY_INTERFACE
		DETECTOR=STARCHECK
		SCAN_CURVETYPE=INPLANE_PROFILE
		SCAN_DEPTH=0.00
		SCAN_OFFAXIS_CROSSPLANE=130.00
		SCAN_ANGLE=0.00
		SCAN_DIAGONAL=NOT_DIAGONAL
		MEAS_PRESET=TIME_PRESET
		MEAS_TIME=10.000
		MEAS_UNIT=GY
		PRESSURE=1013.25
		TEMPERATURE=20.00
		NORM_TEMPERATURE=20.00
		CORRECTION_FACTOR=1.0000
		CORRECTIONS=AIR_DENSITY_CORR;
		BEGIN_DATA
			-130.00		1.9240E-03
			-125.00		2.2020E-03
			-120.00		2.0872E-03
			-115.00		2.3877E-03
			-110.00		3.0189E-03
			-105.00		2.5063E-03
			-100.00		2.9466E-03
			-95.00		2.5057E-03
			-90.00		2.4377E-03
			-85.00		3.5291E-03
			-80.00		3.1061E-03
			-75.00		3.4903E-03
			-70.00		3.6522E-03
			-65.00		3.6174E-03
			-60.00		4.2294E-03
			-55.00		4.1214E-03
			-50.00		3.9887E-03
			-45.00		4.1807E-03
			-40.00		5.4904E-03
			-35.00		4.7078E-03
			-30.00		5.3067E-03
			-25.00		4.6507E-03
			-20.00		5.3561E-03
			-15.00		4.9486E-03
			-10.00		4.6089E-03
			-5.00		5.5613E-03
			0.00		5.7730E-03
			5.00		5.8662E-03
			10.00		5.8078E-03
			15.00		5.0466E-03
			20.00		5.4859E-03
			25.00		5.2508E-03
			30.00		5.5479E-03
			35.00		4.9948E-03
			40.00		5.8093E-03
			45.00		4.9708E-03
			50.00		5.1716E-03
			55.00		5.0642E-03
			60.00		4.8628E-03
			65.00		4.2123E-03
			70.00		4.1348E-03
			75.00		4.1652E-03
			80.00		4.3275E-03
			85.00		3.6407E-03
			90.00		3.6714E-03
			95.00		3.7037E-03
			100.00		3.6521E-03
			105.00		2.9698E-03
			110.00		2.6664E-03
			115.00		2.8640E-03
			120.00		2.5339E-03
			125.00		2.6813E-03
			130.00		1.9307E-03
		END_DATA
	END_SCAN  14
	BEGIN_SCAN  15
		TASK_NAME=MODE_INTERVAL
		PROGRAM=BeamAdjust 1.2
		MEAS_DATE=07-Oct-2010 14:26:03
		LINAC=A4
		MODALITY=X
		INPLANE_AXIS_DIR=TARGET_GUN
		CROSSPLANE_AXIS_DIR=LEFT_RIGHT
		DEPTH_AXIS_DIR=UP_DOWN
		ENERGY=6.00
		SSD=950.00
		WEDGE=None
		FIELD_INPLANE=100.00
		FIELD_CROSSPLANE=100.00
		FIELD_TYPE=RECTANGULAR
		GANTRY=0.00
		GANTRY_UPRIGHT_POSITION=0
		GANTRY_ROTATION=CW
		COLL_ANGLE=90.00
		COLL_OFFSET_INPLANE=0.00
		COLL_OFFSET_CROSSPLANE=0.00
		SCAN_DEVICE=STARCHECK
		ELECTROMETER=2D_ARRAY_INTERFACE
		DETECTOR=STARCHECK
		SCAN_CURVETYPE=INPLANE_PROFILE
		SCAN_DEPTH=0.00
		SCAN_OFFAXIS_CROSSPLANE=0.00
		SCAN_ANGLE=0.00
		SCAN_DIAGONAL=FIRST_DIAGONAL
		MEAS_PRESET=TIME_PRESET
		MEAS_TIME=10.000
		MEAS_UNIT=GY
		PRESSURE=1013.25
		TEMPERATURE=20.00
		NORM_TEMPERATURE=20.00
		CORRECTION_FACTOR=1.0000
		CORRECTIONS=AIR_DENSITY_CORR;
		BEGIN_DATA
			-172.40		2.4765E-03
			-169.40		2.8679E-03
			-166.40		3.4758E-03
			-163.40		3.5643E-03
			-160.40		3.5701E-03
			-157.40		3.7027E-03
			-154.40		3.8259E-03
			-151.40		3.9140E-03
			-148.40		4.6531E-03
			-145.40		4.6819E-03
			-142.40		5.6270E-03
			-139.40		5.3603E-03
			-136.40		5.7131E-03
			-133.40		6.3779E-03
			-130.40		6.8200E-03
			-127.40		7.0515E-03
			-124.40		7.6481E-03
			-121.40		8.3660E-03
			-118.40		9.2191E-03
			-115.40		9.9473E-03
			-112.40		10.499E-03
			-109.40		12.443E-03
			-106.40		12.768E-03
			-103.40		13.323E-03
			-100.40		14.356E-03
			-97.40		16.679E-03
			-94.40		18.431E-03
			-91.40		20.039E-03
			-88.40		22.861E-03
			-85.40		24.849E-03
			-82.40		28.743E-03
			-79.40		32.758E-03
			-76.40		39.075E-03
			-73.40		53.398E-03
			-70.40		91.795E-03
			-67.40		218.15E-03
			-64.40		397.57E-03
			-61.40		530.40E-03
			-58.40		594.96E-03
			-55.40		621.96E-03
			-52.40		634.18E-03
			-49.40		642.63E-03
			-46.40		646.35E-03
			-43.40		649.98E-03
			-40.40		653.39E-03
			-37.40		658.63E-03
			-34.40		658.66E-03
			-31.40		660.98E-03
			-28.40		659.94E-03
			-25.40		663.51E-03
			-22.40		662.84E-03
			-19.40		663.00E-03
			-16.40		665.72E-03
			-13.40		670.12E-03
			0.00		667.36E-03
			13.40		672.52E-03
			16.40		668.28E-03
			19.40		667.67E-03
			22.40		666.18E-03
			25.40		665.13E-03
			28.40		664.21E-03
			31.40		662.21E-03
			34.40		658.98E-03
			37.40		662.02E-03
			40.40		660.21E-03
			43.40		656.79E-03
			46.40		655.42E-03
			49.40		650.56E-03
			52.40		647.47E-03
			55.40		637.28E-03
			58.40		628.69E-03
			61.40		611.23E-03
			64.40		569.23E-03
			67.40		465.36E-03
			70.40		275.24E-03
			73.40		114.01E-03
			76.40		58.170E-03
			79.40		41.305E-03
			82.40		33.951E-03
			85.40		28.628E-03
			88.40		25.408E-03
			91.40		22.461E-03
			94.40		20.044E-03
			97.40		18.285E-03
			100.40		15.966E-03
			103.40		15.655E-03
			106.40		13.285E-03
			109.40		12.882E-03
			112.40		10.633E-03
			115.40		10.324E-03
			118.40		9.0822E-03
			121.40		8.5775E-03
			124.40		8.6436E-03
			127.40		7.4571E-03
			130.40		7.6640E-03
			133.40		5.9056E-03
			136.40		5.6976E-03
			139.40		4.6484E-03
			142.40		4.5434E-03
			145.40		4.5484E-03
			148.40		4.4521E-03
			151.40		3.4763E-03
			154.40		3.6707E-03
			157.40		3.4584E-03
			160.40		2.3109E-03
			163.40		2.4383E-03
			166.40		2.8915E-03
			169.40		2.3585E-03
			172.40		2.4698E-03
		END_DATA
	END_SCAN  15
	BEGIN_SCAN  16
		TASK_NAME=MODE_INTERVAL
		PROGRAM=BeamAdjust 1.2
		MEAS_DATE=07-Oct-2010 14:26:03
		LINAC=A4
		MODALITY=X
		INPLANE_AXIS_DIR=GUN_TARGET
		CROSSPLANE_AXIS_DIR=LEFT_RIGHT
		DEPTH_AXIS_DIR=UP_DOWN
		ENERGY=6.00
		SSD=950.00
		WEDGE=None
		FIELD_INPLANE=100.00
		FIELD_CROSSPLANE=100.00
		FIELD_TYPE=RECTANGULAR
		GANTRY=0.00
		GANTRY_UPRIGHT_POSITION=0
		GANTRY_ROTATION=CW
		COLL_ANGLE=90.00
		COLL_OFFSET_INPLANE=0.00
		COLL_OFFSET_CROSSPLANE=0.00
		SCAN_DEVICE=STARCHECK
		ELECTROMETER=2D_ARRAY_INTERFACE
		DETECTOR=STARCHECK
		SCAN_CURVETYPE=INPLANE_PROFILE
		SCAN_DEPTH=0.00
		SCAN_OFFAXIS_CROSSPLANE=0.00
		SCAN_ANGLE=0.00
		SCAN_DIAGONAL=SECOND_DIAGONAL
		MEAS_PRESET=TIME_PRESET
		MEAS_TIME=10.000
		MEAS_UNIT=GY
		PRESSURE=1013.25
		TEMPERATURE=20.00
		NORM_TEMPERATURE=20.00
		CORRECTION_FACTOR=1.0000
		CORRECTIONS=AIR_DENSITY_CORR;
		BEGIN_DATA
			-172.40		2.1574E-03
			-169.40		2.6694E-03
			-166.40		2.5464E-03
			-163.40		2.6437E-03
			-160.40		3.0768E-03
			-157.40		3.3672E-03
			-154.40		3.8298E-03
			-151.40		3.6599E-03
			-148.40		4.1469E-03
			-145.40		4.1958E-03
			-142.40		4.7979E-03
			-139.40		5.0232E-03
			-136.40		5.4946E-03
			-133.40		5.9661E-03
			-130.40		6.7466E-03
			-127.40		7.2265E-03
			-124.40		7.8310E-03
			-121.40		8.6134E-03
			-118.40		8.6861E-03
			-115.40		9.8919E-03
			-112.40		9.8586E-03
			-109.40		11.208E-03
			-106.40		12.620E-03
			-103.40		13.126E-03
			-100.40		15.185E-03
			-97.40		15.918E-03
			-94.40		17.586E-03
			-91.40		19.930E-03
			-88.40		21.467E-03
			-85.40		23.838E-03
			-82.40		27.570E-03
			-79.40		31.486E-03
			-76.40		38.071E-03
			-73.40		50.116E-03
			-70.40		79.477E-03
			-67.40		185.51E-03
			-64.40		376.58E-03
			-61.40		524.32E-03
			-58.40		597.04E-03
			-55.40		623.35E-03
			-52.40		640.15E-03
			-49.40		647.48E-03
			-46.40		651.79E-03
			-43.40		656.04E-03
			-40.40		658.19E-03
			-37.40		661.99E-03
			-34.40		661.73E-03
			-31.40		664.04E-03
			-28.40		666.19E-03
			-25.40		664.99E-03
			-22.40		664.16E-03
			-19.40		666.51E-03
			-16.40		668.07E-03
			-13.40		671.12E-03
			0.00		667.36E-03
			13.40		671.04E-03
			16.40		668.97E-03
			19.40		665.19E-03
			22.40		662.20E-03
			25.40		661.56E-03
			28.40		660.88E-03
			31.40		659.39E-03
			34.40		657.42E-03
			37.40		656.47E-03
			40.40		655.80E-03
			43.40		653.57E-03
			46.40		652.63E-03
			49.40		648.91E-03
			52.40		641.68E-03
			55.40		634.95E-03
			58.40		628.32E-03
			61.40		610.80E-03
			64.40		573.71E-03
			67.40		475.67E-03
			70.40		293.44E-03
			73.40		121.85E-03
			76.40		60.593E-03
			79.40		42.027E-03
			82.40		34.778E-03
			85.40		29.234E-03
			88.40		26.010E-03
			91.40		23.254E-03
			94.40		20.933E-03
			97.40		18.589E-03
			100.40		16.599E-03
			103.40		14.329E-03
			106.40		14.331E-03
			109.40		12.393E-03
			112.40		11.745E-03
			115.40		10.556E-03
			118.40		10.326E-03
			121.40		8.6869E-03
			124.40		7.9958E-03
			127.40		7.4298E-03
			130.40		7.4711E-03
			133.40		6.4910E-03
			136.40		5.9645E-03
			139.40		6.2603E-03
			142.40		5.3905E-03
			145.40		5.5184E-03
			148.40		4.5810E-03
			151.40		4.3189E-03
			154.40		3.9568E-03
			157.40		4.2604E-03
			160.40		3.8943E-03
			163.40		3.8719E-03
			166.40		3.3750E-03
			169.40		2.6160E-03
			172.40		2.6135E-03
		END_DATA
	END_SCAN  16
END_SCAN_DATA
