BEGIN_SCAN_DATA
	FORMAT=CC-Export V1.9                  
	FILE_CREATION_DATE=07-Oct-2010 14:26:48
	LAST_MODIFIED=07-Oct-2010 14:26:48
	BEGIN_SCAN  1
		TASK_NAME=MODE_INTERVAL
		PROGRAM=BeamAdjust 1.2
		MEAS_DATE=07-Oct-2010 14:26:48
		LINAC=A4
		MODALITY=X
		INPLANE_AXIS_DIR=TARGET_GUN
		CROSSPLANE_AXIS_DIR=LEFT_RIGHT
		DEPTH_AXIS_DIR=UP_DOWN
		ENERGY=6.00
		SSD=950.00
		WEDGE=None
		FIELD_INPLANE=100.00
		FIELD_CROSSPLANE=100.00
		FIELD_TYPE=RECTANGULAR
		GANTRY=0.00
		GANTRY_UPRIGHT_POSITION=0
		GANTRY_ROTATION=CW
		COLL_ANGLE=90.00
		COLL_OFFSET_INPLANE=0.00
		COLL_OFFSET_CROSSPLANE=0.00
		SCAN_DEVICE=STARCHECK
		ELECTROMETER=2D_ARRAY_INTERFACE
		DETECTOR=STARCHECK
		SCAN_CURVETYPE=CROSSPLANE_PROFILE
		SCAN_DEPTH=0.00
		SCAN_OFFAXIS_INPLANE=-130.00
		SCAN_ANGLE=0.00
		SCAN_DIAGONAL=NOT_DIAGONAL
		MEAS_PRESET=TIME_PRESET
		MEAS_TIME=10.000
		MEAS_UNIT=GY
		PRESSURE=1013.25
		TEMPERATURE=20.00
		NORM_TEMPERATURE=20.00
		CORRECTION_FACTOR=1.0000
		CORRECTIONS=AIR_DENSITY_CORR;
		BEGIN_DATA
			-130.00		2.2698E-03
			-80.00		3.7921E-03
			-40.00		6.8621E-03
			40.00		6.4811E-03
			80.00		3.6549E-03
			130.00		1.8551E-03
		END_DATA
	END_SCAN  1
	BEGIN_SCAN  2
		TASK_NAME=MODE_INTERVAL
		PROGRAM=BeamAdjust 1.2
		MEAS_DATE=07-Oct-2010 14:26:48
		LINAC=A4
		MODALITY=X
		INPLANE_AXIS_DIR=TARGET_GUN
		CROSSPLANE_AXIS_DIR=LEFT_RIGHT
		DEPTH_AXIS_DIR=UP_DOWN
		ENERGY=6.00
		SSD=950.00
		WEDGE=None
		FIELD_INPLANE=100.00
		FIELD_CROSSPLANE=100.00
		FIELD_TYPE=RECTANGULAR
		GANTRY=0.00
		GANTRY_UPRIGHT_POSITION=0
		GANTRY_ROTATION=CW
		COLL_ANGLE=90.00
		COLL_OFFSET_INPLANE=0.00
		COLL_OFFSET_CROSSPLANE=0.00
		SCAN_DEVICE=STARCHECK
		ELECTROMETER=2D_ARRAY_INTERFACE
		DETECTOR=STARCHECK
		SCAN_CURVETYPE=CROSSPLANE_PROFILE
		SCAN_DEPTH=0.00
		SCAN_OFFAXIS_INPLANE=-100.00
		SCAN_ANGLE=0.00
		SCAN_DIAGONAL=NOT_DIAGONAL
		MEAS_PRESET=TIME_PRESET
		MEAS_TIME=10.000
		MEAS_UNIT=GY
		PRESSURE=1013.25
		TEMPERATURE=20.00
		NORM_TEMPERATURE=20.00
		CORRECTION_FACTOR=1.0000
		CORRECTIONS=AIR_DENSITY_CORR;
		BEGIN_DATA
			-60.00		9.1299E-03
			-30.00		13.238E-03
			30.00		13.548E-03
			60.00		9.1620E-03
		END_DATA
	END_SCAN  2
	BEGIN_SCAN  3
		TASK_NAME=MODE_INTERVAL
		PROGRAM=BeamAdjust 1.2
		MEAS_DATE=07-Oct-2010 14:26:48
		LINAC=A4
		MODALITY=X
		INPLANE_AXIS_DIR=TARGET_GUN
		CROSSPLANE_AXIS_DIR=LEFT_RIGHT
		DEPTH_AXIS_DIR=UP_DOWN
		ENERGY=6.00
		SSD=950.00
		WEDGE=None
		FIELD_INPLANE=100.00
		FIELD_CROSSPLANE=100.00
		FIELD_TYPE=RECTANGULAR
		GANTRY=0.00
		GANTRY_UPRIGHT_POSITION=0
		GANTRY_ROTATION=CW
		COLL_ANGLE=90.00
		COLL_OFFSET_INPLANE=0.00
		COLL_OFFSET_CROSSPLANE=0.00
		SCAN_DEVICE=STARCHECK
		ELECTROMETER=2D_ARRAY_INTERFACE
		DETECTOR=STARCHECK
		SCAN_CURVETYPE=CROSSPLANE_PROFILE
		SCAN_DEPTH=0.00
		SCAN_OFFAXIS_INPLANE=-50.00
		SCAN_ANGLE=0.00
		SCAN_DIAGONAL=NOT_DIAGONAL
		MEAS_PRESET=TIME_PRESET
		MEAS_TIME=10.000
		MEAS_UNIT=GY
		PRESSURE=1013.25
		TEMPERATURE=20.00
		NORM_TEMPERATURE=20.00
		CORRECTION_FACTOR=1.0000
		CORRECTIONS=AIR_DENSITY_CORR;
		BEGIN_DATA
			-30.00		118.16E-03
			-15.00		108.36E-03
			15.00		114.67E-03
			30.00		117.69E-03
		END_DATA
	END_SCAN  3
	BEGIN_SCAN  4
		TASK_NAME=MODE_INTERVAL
		PROGRAM=BeamAdjust 1.2
		MEAS_DATE=07-Oct-2010 14:26:48
		LINAC=A4
		MODALITY=X
		INPLANE_AXIS_DIR=TARGET_GUN
		CROSSPLANE_AXIS_DIR=LEFT_RIGHT
		DEPTH_AXIS_DIR=UP_DOWN
		ENERGY=6.00
		SSD=950.00
		WEDGE=None
		FIELD_INPLANE=100.00
		FIELD_CROSSPLANE=100.00
		FIELD_TYPE=RECTANGULAR
		GANTRY=0.00
		GANTRY_UPRIGHT_POSITION=0
		GANTRY_ROTATION=CW
		COLL_ANGLE=90.00
		COLL_OFFSET_INPLANE=0.00
		COLL_OFFSET_CROSSPLANE=0.00
		SCAN_DEVICE=STARCHECK
		ELECTROMETER=2D_ARRAY_INTERFACE
		DETECTOR=STARCHECK
		SCAN_CURVETYPE=CROSSPLANE_PROFILE
		SCAN_DEPTH=0.00
		SCAN_OFFAXIS_INPLANE=0.00
		SCAN_ANGLE=0.00
		SCAN_DIAGONAL=NOT_DIAGONAL
		MEAS_PRESET=TIME_PRESET
		MEAS_TIME=10.000
		MEAS_UNIT=GY
		PRESSURE=1013.25
		TEMPERATURE=20.00
		NORM_TEMPERATURE=20.00
		CORRECTION_FACTOR=1.0000
		CORRECTIONS=AIR_DENSITY_CORR;
		BEGIN_DATA
			-126.00		5.9171E-03
			-123.00		7.4219E-03
			-120.00		7.6593E-03
			-117.00		8.3021E-03
			-114.00		8.6724E-03
			-111.00		9.4120E-03
			-108.00		10.242E-03
			-105.00		11.265E-03
			-102.00		11.478E-03
			-99.00		12.708E-03
			-96.00		13.793E-03
			-93.00		14.831E-03
			-90.00		16.187E-03
			-87.00		17.872E-03
			-84.00		19.974E-03
			-81.00		21.808E-03
			-78.00		23.679E-03
			-75.00		26.566E-03
			-72.00		29.360E-03
			-69.00		33.637E-03
			-66.00		38.938E-03
			-63.00		45.118E-03
			-60.00		54.349E-03
			-57.00		72.005E-03
			-54.00		112.84E-03
			-51.00		287.50E-03
			-48.00		552.58E-03
			-45.00		615.55E-03
			-42.00		635.02E-03
			-39.00		647.76E-03
			-36.00		653.71E-03
			-33.00		654.17E-03
			-30.00		655.91E-03
			-27.00		658.67E-03
			-24.00		661.38E-03
			-21.00		661.67E-03
			-18.00		667.32E-03
			-15.00		667.66E-03
			-12.00		666.80E-03
			-9.00		669.79E-03
			-6.00		667.80E-03
			0.00		666.72E-03
			6.00		670.69E-03
			9.00		669.63E-03
			12.00		667.46E-03
			15.00		666.44E-03
			18.00		665.76E-03
			21.00		663.86E-03
			24.00		660.41E-03
			27.00		664.36E-03
			30.00		662.89E-03
			33.00		660.31E-03
			36.00		656.57E-03
			39.00		650.70E-03
			42.00		639.56E-03
			45.00		614.41E-03
			48.00		527.29E-03
			51.00		234.91E-03
			54.00		102.34E-03
			57.00		68.058E-03
			60.00		52.930E-03
			63.00		43.916E-03
			66.00		37.539E-03
			69.00		32.951E-03
			72.00		29.601E-03
			75.00		26.366E-03
			78.00		23.226E-03
			81.00		21.403E-03
			84.00		19.552E-03
			87.00		17.283E-03
			90.00		16.766E-03
			93.00		14.565E-03
			96.00		13.362E-03
			99.00		12.323E-03
			102.00		11.779E-03
			105.00		10.532E-03
			108.00		10.343E-03
			111.00		9.3115E-03
			114.00		8.4104E-03
			117.00		7.9400E-03
			120.00		7.2143E-03
			123.00		7.0627E-03
			126.00		6.7394E-03
		END_DATA
	END_SCAN  4
	BEGIN_SCAN  5
		TASK_NAME=MODE_INTERVAL
		PROGRAM=BeamAdjust 1.2
		MEAS_DATE=07-Oct-2010 14:26:48
		LINAC=A4
		MODALITY=X
		INPLANE_AXIS_DIR=TARGET_GUN
		CROSSPLANE_AXIS_DIR=LEFT_RIGHT
		DEPTH_AXIS_DIR=UP_DOWN
		ENERGY=6.00
		SSD=950.00
		WEDGE=None
		FIELD_INPLANE=100.00
		FIELD_CROSSPLANE=100.00
		FIELD_TYPE=RECTANGULAR
		GANTRY=0.00
		GANTRY_UPRIGHT_POSITION=0
		GANTRY_ROTATION=CW
		COLL_ANGLE=90.00
		COLL_OFFSET_INPLANE=0.00
		COLL_OFFSET_CROSSPLANE=0.00
		SCAN_DEVICE=STARCHECK
		ELECTROMETER=2D_ARRAY_INTERFACE
		DETECTOR=STARCHECK
		SCAN_CURVETYPE=CROSSPLANE_PROFILE
		SCAN_DEPTH=0.00
		SCAN_OFFAXIS_INPLANE=50.00
		SCAN_ANGLE=0.00
		SCAN_DIAGONAL=NOT_DIAGONAL
		MEAS_PRESET=TIME_PRESET
		MEAS_TIME=10.000
		MEAS_UNIT=GY
		PRESSURE=1013.25
		TEMPERATURE=20.00
		NORM_TEMPERATURE=20.00
		CORRECTION_FACTOR=1.0000
		CORRECTIONS=AIR_DENSITY_CORR;
		BEGIN_DATA
			-30.00		569.87E-03
			-15.00		581.48E-03
			15.00		566.36E-03
			30.00		564.85E-03
		END_DATA
	END_SCAN  5
	BEGIN_SCAN  6
		TASK_NAME=MODE_INTERVAL
		PROGRAM=BeamAdjust 1.2
		MEAS_DATE=07-Oct-2010 14:26:48
		LINAC=A4
		MODALITY=X
		INPLANE_AXIS_DIR=TARGET_GUN
		CROSSPLANE_AXIS_DIR=LEFT_RIGHT
		DEPTH_AXIS_DIR=UP_DOWN
		ENERGY=6.00
		SSD=950.00
		WEDGE=None
		FIELD_INPLANE=100.00
		FIELD_CROSSPLANE=100.00
		FIELD_TYPE=RECTANGULAR
		GANTRY=0.00
		GANTRY_UPRIGHT_POSITION=0
		GANTRY_ROTATION=CW
		COLL_ANGLE=90.00
		COLL_OFFSET_INPLANE=0.00
		COLL_OFFSET_CROSSPLANE=0.00
		SCAN_DEVICE=STARCHECK
		ELECTROMETER=2D_ARRAY_INTERFACE
		DETECTOR=STARCHECK
		SCAN_CURVETYPE=CROSSPLANE_PROFILE
		SCAN_DEPTH=0.00
		SCAN_OFFAXIS_INPLANE=100.00
		SCAN_ANGLE=0.00
		SCAN_DIAGONAL=NOT_DIAGONAL
		MEAS_PRESET=TIME_PRESET
		MEAS_TIME=10.000
		MEAS_UNIT=GY
		PRESSURE=1013.25
		TEMPERATURE=20.00
		NORM_TEMPERATURE=20.00
		CORRECTION_FACTOR=1.0000
		CORRECTIONS=AIR_DENSITY_CORR;
		BEGIN_DATA
			-60.00		11.152E-03
			-30.00		16.415E-03
			30.00		16.499E-03
			60.00		9.9269E-03
		END_DATA
	END_SCAN  6
	BEGIN_SCAN  7
		TASK_NAME=MODE_INTERVAL
		PROGRAM=BeamAdjust 1.2
		MEAS_DATE=07-Oct-2010 14:26:48
		LINAC=A4
		MODALITY=X
		INPLANE_AXIS_DIR=TARGET_GUN
		CROSSPLANE_AXIS_DIR=LEFT_RIGHT
		DEPTH_AXIS_DIR=UP_DOWN
		ENERGY=6.00
		SSD=950.00
		WEDGE=None
		FIELD_INPLANE=100.00
		FIELD_CROSSPLANE=100.00
		FIELD_TYPE=RECTANGULAR
		GANTRY=0.00
		GANTRY_UPRIGHT_POSITION=0
		GANTRY_ROTATION=CW
		COLL_ANGLE=90.00
		COLL_OFFSET_INPLANE=0.00
		COLL_OFFSET_CROSSPLANE=0.00
		SCAN_DEVICE=STARCHECK
		ELECTROMETER=2D_ARRAY_INTERFACE
		DETECTOR=STARCHECK
		SCAN_CURVETYPE=CROSSPLANE_PROFILE
		SCAN_DEPTH=0.00
		SCAN_OFFAXIS_INPLANE=130.00
		SCAN_ANGLE=0.00
		SCAN_DIAGONAL=NOT_DIAGONAL
		MEAS_PRESET=TIME_PRESET
		MEAS_TIME=10.000
		MEAS_UNIT=GY
		PRESSURE=1013.25
		TEMPERATURE=20.00
		NORM_TEMPERATURE=20.00
		CORRECTION_FACTOR=1.0000
		CORRECTIONS=AIR_DENSITY_CORR;
		BEGIN_DATA
			-130.00		1.6180E-03
			-80.00		4.7843E-03
			-40.00		7.6473E-03
			40.00		7.9188E-03
			80.00		3.9540E-03
			130.00		2.2486E-03
		END_DATA
	END_SCAN  7
	BEGIN_SCAN  8
		TASK_NAME=MODE_INTERVAL
		PROGRAM=BeamAdjust 1.2
		MEAS_DATE=07-Oct-2010 14:26:48
		LINAC=A4
		MODALITY=X
		INPLANE_AXIS_DIR=TARGET_GUN
		CROSSPLANE_AXIS_DIR=LEFT_RIGHT
		DEPTH_AXIS_DIR=UP_DOWN
		ENERGY=6.00
		SSD=950.00
		WEDGE=None
		FIELD_INPLANE=100.00
		FIELD_CROSSPLANE=100.00
		FIELD_TYPE=RECTANGULAR
		GANTRY=0.00
		GANTRY_UPRIGHT_POSITION=0
		GANTRY_ROTATION=CW
		COLL_ANGLE=90.00
		COLL_OFFSET_INPLANE=0.00
		COLL_OFFSET_CROSSPLANE=0.00
		SCAN_DEVICE=STARCHECK
		ELECTROMETER=2D_ARRAY_INTERFACE
		DETECTOR=STARCHECK
		SCAN_CURVETYPE=INPLANE_PROFILE
		SCAN_DEPTH=0.00
		SCAN_OFFAXIS_CROSSPLANE=-130.00
		SCAN_ANGLE=0.00
		SCAN_DIAGONAL=NOT_DIAGONAL
		MEAS_PRESET=TIME_PRESET
		MEAS_TIME=10.000
		MEAS_UNIT=GY
		PRESSURE=1013.25
		TEMPERATURE=20.00
		NORM_TEMPERATURE=20.00
		CORRECTION_FACTOR=1.0000
		CORRECTIONS=AIR_DENSITY_CORR;
		BEGIN_DATA
			-130.00		2.2698E-03
			-125.00		2.3609E-03
			-120.00		3.2312E-03
			-115.00		3.0995E-03
			-110.00		3.0299E-03
			-105.00		3.1706E-03
			-100.00		3.5944E-03
			-95.00		4.1153E-03
			-90.00		4.1300E-03
			-85.00		4.0750E-03
			-80.00		4.1273E-03
			-75.00		4.4738E-03
			-70.00		4.6821E-03
			-65.00		4.7002E-03
			-60.00		4.7596E-03
			-55.00		5.6441E-03
			-50.00		4.6880E-03
			-45.00		4.4859E-03
			-40.00		4.4190E-03
			-35.00		5.0654E-03
			-30.00		5.1896E-03
			-25.00		4.8539E-03
			-20.00		5.0395E-03
			-15.00		5.0368E-03
			-10.00		5.0236E-03
			-5.00		5.8351E-03
			0.00		5.8097E-03
			5.00		6.6346E-03
			10.00		5.6463E-03
			15.00		5.5820E-03
			20.00		6.0324E-03
			25.00		4.9883E-03
			30.00		5.6349E-03
			35.00		5.1842E-03
			40.00		5.0285E-03
			45.00		4.4690E-03
			50.00		4.9834E-03
			55.00		4.3189E-03
			60.00		4.3342E-03
			65.00		4.2577E-03
			70.00		3.7992E-03
			75.00		3.6923E-03
			80.00		3.5745E-03
			85.00		3.4955E-03
			90.00		3.6659E-03
			95.00		3.3371E-03
			100.00		3.0653E-03
			105.00		2.1975E-03
			110.00		2.9332E-03
			115.00		2.1108E-03
			120.00		2.4665E-03
			125.00		2.5827E-03
			130.00		1.6180E-03
		END_DATA
	END_SCAN  8
	BEGIN_SCAN  9
		TASK_NAME=MODE_INTERVAL
		PROGRAM=BeamAdjust 1.2
		MEAS_DATE=07-Oct-2010 14:26:48
		LINAC=A4
		MODALITY=X
		INPLANE_AXIS_DIR=TARGET_GUN
		CROSSPLANE_AXIS_DIR=LEFT_RIGHT
		DEPTH_AXIS_DIR=UP_DOWN
		ENERGY=6.00
		SSD=950.00
		WEDGE=None
		FIELD_INPLANE=100.00
		FIELD_CROSSPLANE=100.00
		FIELD_TYPE=RECTANGULAR
		GANTRY=0.00
		GANTRY_UPRIGHT_POSITION=0
		GANTRY_ROTATION=CW
		COLL_ANGLE=90.00
		COLL_OFFSET_INPLANE=0.00
		COLL_OFFSET_CROSSPLANE=0.00
		SCAN_DEVICE=STARCHECK
		ELECTROMETER=2D_ARRAY_INTERFACE
		DETECTOR=STARCHECK
		SCAN_CURVETYPE=INPLANE_PROFILE
		SCAN_DEPTH=0.00
		SCAN_OFFAXIS_CROSSPLANE=-100.00
		SCAN_ANGLE=0.00
		SCAN_DIAGONAL=NOT_DIAGONAL
		MEAS_PRESET=TIME_PRESET
		MEAS_TIME=10.000
		MEAS_UNIT=GY
		PRESSURE=1013.25
		TEMPERATURE=20.00
		NORM_TEMPERATURE=20.00
		CORRECTION_FACTOR=1.0000
		CORRECTIONS=AIR_DENSITY_CORR;
		BEGIN_DATA
			-60.00		7.9656E-03
			-30.00		10.081E-03
			30.00		10.286E-03
			60.00		8.1625E-03
		END_DATA
	END_SCAN  9
	BEGIN_SCAN  10
		TASK_NAME=MODE_INTERVAL
		PROGRAM=BeamAdjust 1.2
		MEAS_DATE=07-Oct-2010 14:26:48
		LINAC=A4
		MODALITY=X
		INPLANE_AXIS_DIR=TARGET_GUN
		CROSSPLANE_AXIS_DIR=LEFT_RIGHT
		DEPTH_AXIS_DIR=UP_DOWN
		ENERGY=6.00
		SSD=950.00
		WEDGE=None
		FIELD_INPLANE=100.00
		FIELD_CROSSPLANE=100.00
		FIELD_TYPE=RECTANGULAR
		GANTRY=0.00
		GANTRY_UPRIGHT_POSITION=0
		GANTRY_ROTATION=CW
		COLL_ANGLE=90.00
		COLL_OFFSET_INPLANE=0.00
		COLL_OFFSET_CROSSPLANE=0.00
		SCAN_DEVICE=STARCHECK
		ELECTROMETER=2D_ARRAY_INTERFACE
		DETECTOR=STARCHECK
		SCAN_CURVETYPE=INPLANE_PROFILE
		SCAN_DEPTH=0.00
		SCAN_OFFAXIS_CROSSPLANE=-50.00
		SCAN_ANGLE=0.00
		SCAN_DIAGONAL=NOT_DIAGONAL
		MEAS_PRESET=TIME_PRESET
		MEAS_TIME=10.000
		MEAS_UNIT=GY
		PRESSURE=1013.25
		TEMPERATURE=20.00
		NORM_TEMPERATURE=20.00
		CORRECTION_FACTOR=1.0000
		CORRECTIONS=AIR_DENSITY_CORR;
		BEGIN_DATA
			-30.00		391.44E-03
			-15.00		390.04E-03
			15.00		380.85E-03
			30.00		370.86E-03
		END_DATA
	END_SCAN  10
	BEGIN_SCAN  11
		TASK_NAME=MODE_INTERVAL
		PROGRAM=BeamAdjust 1.2
		MEAS_DATE=07-Oct-2010 14:26:48
		LINAC=A4
		MODALITY=X
		INPLANE_AXIS_DIR=TARGET_GUN
		CROSSPLANE_AXIS_DIR=LEFT_RIGHT
		DEPTH_AXIS_DIR=UP_DOWN
		ENERGY=6.00
		SSD=950.00
		WEDGE=None
		FIELD_INPLANE=100.00
		FIELD_CROSSPLANE=100.00
		FIELD_TYPE=RECTANGULAR
		GANTRY=0.00
		GANTRY_UPRIGHT_POSITION=0
		GANTRY_ROTATION=CW
		COLL_ANGLE=90.00
		COLL_OFFSET_INPLANE=0.00
		COLL_OFFSET_CROSSPLANE=0.00
		SCAN_DEVICE=STARCHECK
		ELECTROMETER=2D_ARRAY_INTERFACE
		DETECTOR=STARCHECK
		SCAN_CURVETYPE=INPLANE_PROFILE
		SCAN_DEPTH=0.00
		SCAN_OFFAXIS_CROSSPLANE=0.00
		SCAN_ANGLE=0.00
		SCAN_DIAGONAL=NOT_DIAGONAL
		MEAS_PRESET=TIME_PRESET
		MEAS_TIME=10.000
		MEAS_UNIT=GY
		PRESSURE=1013.25
		TEMPERATURE=20.00
		NORM_TEMPERATURE=20.00
		CORRECTION_FACTOR=1.0000
		CORRECTIONS=AIR_DENSITY_CORR;
		BEGIN_DATA
			-126.00		8.3107E-03
			-123.00		8.4359E-03
			-120.00		8.8468E-03
			-117.00		10.696E-03
			-114.00		10.435E-03
			-111.00		11.676E-03
			-108.00		12.010E-03
			-105.00		13.521E-03
			-102.00		14.638E-03
			-99.00		15.312E-03
			-96.00		16.084E-03
			-93.00		18.354E-03
			-90.00		19.601E-03
			-87.00		20.913E-03
			-84.00		22.945E-03
			-81.00		24.941E-03
			-78.00		26.915E-03
			-75.00		29.384E-03
			-72.00		31.589E-03
			-69.00		34.920E-03
			-66.00		38.668E-03
			-63.00		43.705E-03
			-60.00		48.850E-03
			-57.00		58.292E-03
			-54.00		72.184E-03
			-51.00		104.23E-03
			-48.00		208.49E-03
			-45.00		472.58E-03
			-42.00		605.72E-03
			-39.00		635.77E-03
			-36.00		648.10E-03
			-33.00		654.53E-03
			-30.00		660.51E-03
			-27.00		662.80E-03
			-24.00		663.34E-03
			-21.00		662.75E-03
			-18.00		668.01E-03
			-15.00		666.14E-03
			-12.00		668.99E-03
			-9.00		671.46E-03
			-6.00		669.12E-03
			0.00		666.72E-03
			6.00		669.89E-03
			9.00		669.92E-03
			12.00		670.22E-03
			15.00		670.52E-03
			18.00		665.90E-03
			21.00		664.31E-03
			24.00		660.68E-03
			27.00		662.89E-03
			30.00		659.59E-03
			33.00		658.57E-03
			36.00		658.06E-03
			39.00		649.92E-03
			42.00		645.81E-03
			45.00		637.55E-03
			48.00		611.14E-03
			51.00		529.94E-03
			54.00		267.47E-03
			57.00		123.46E-03
			60.00		77.598E-03
			63.00		60.365E-03
			66.00		51.143E-03
			69.00		44.732E-03
			72.00		40.040E-03
			75.00		35.559E-03
			78.00		31.612E-03
			81.00		29.026E-03
			84.00		26.864E-03
			87.00		24.396E-03
			90.00		22.968E-03
			93.00		20.670E-03
			96.00		19.484E-03
			99.00		17.641E-03
			102.00		15.902E-03
			105.00		14.879E-03
			108.00		14.065E-03
			111.00		13.087E-03
			114.00		12.449E-03
			117.00		11.132E-03
			120.00		10.401E-03
			123.00		9.5665E-03
			126.00		8.7938E-03
		END_DATA
	END_SCAN  11
	BEGIN_SCAN  12
		TASK_NAME=MODE_INTERVAL
		PROGRAM=BeamAdjust 1.2
		MEAS_DATE=07-Oct-2010 14:26:48
		LINAC=A4
		MODALITY=X
		INPLANE_AXIS_DIR=TARGET_GUN
		CROSSPLANE_AXIS_DIR=LEFT_RIGHT
		DEPTH_AXIS_DIR=UP_DOWN
		ENERGY=6.00
		SSD=950.00
		WEDGE=None
		FIELD_INPLANE=100.00
		FIELD_CROSSPLANE=100.00
		FIELD_TYPE=RECTANGULAR
		GANTRY=0.00
		GANTRY_UPRIGHT_POSITION=0
		GANTRY_ROTATION=CW
		COLL_ANGLE=90.00
		COLL_OFFSET_INPLANE=0.00
		COLL_OFFSET_CROSSPLANE=0.00
		SCAN_DEVICE=STARCHECK
		ELECTROMETER=2D_ARRAY_INTERFACE
		DETECTOR=STARCHECK
		SCAN_CURVETYPE=INPLANE_PROFILE
		SCAN_DEPTH=0.00
		SCAN_OFFAXIS_CROSSPLANE=50.00
		SCAN_ANGLE=0.00
		SCAN_DIAGONAL=NOT_DIAGONAL
		MEAS_PRESET=TIME_PRESET
		MEAS_TIME=10.000
		MEAS_UNIT=GY
		PRESSURE=1013.25
		TEMPERATURE=20.00
		NORM_TEMPERATURE=20.00
		CORRECTION_FACTOR=1.0000
		CORRECTIONS=AIR_DENSITY_CORR;
		BEGIN_DATA
			-30.00		326.75E-03
			-15.00		337.32E-03
			15.00		346.47E-03
			30.00		348.76E-03
		END_DATA
	END_SCAN  12
	BEGIN_SCAN  13
		TASK_NAME=MODE_INTERVAL
		PROGRAM=BeamAdjust 1.2
		MEAS_DATE=07-Oct-2010 14:26:48
		LINAC=A4
		MODALITY=X
		INPLANE_AXIS_DIR=TARGET_GUN
		CROSSPLANE_AXIS_DIR=LEFT_RIGHT
		DEPTH_AXIS_DIR=UP_DOWN
		ENERGY=6.00
		SSD=950.00
		WEDGE=None
		FIELD_INPLANE=100.00
		FIELD_CROSSPLANE=100.00
		FIELD_TYPE=RECTANGULAR
		GANTRY=0.00
		GANTRY_UPRIGHT_POSITION=0
		GANTRY_ROTATION=CW
		COLL_ANGLE=90.00
		COLL_OFFSET_INPLANE=0.00
		COLL_OFFSET_CROSSPLANE=0.00
		SCAN_DEVICE=STARCHECK
		ELECTROMETER=2D_ARRAY_INTERFACE
		DETECTOR=STARCHECK
		SCAN_CURVETYPE=INPLANE_PROFILE
		SCAN_DEPTH=0.00
		SCAN_OFFAXIS_CROSSPLANE=100.00
		SCAN_ANGLE=0.00
		SCAN_DIAGONAL=NOT_DIAGONAL
		MEAS_PRESET=TIME_PRESET
		MEAS_TIME=10.000
		MEAS_UNIT=GY
		PRESSURE=1013.25
		TEMPERATURE=20.00
		NORM_TEMPERATURE=20.00
		CORRECTION_FACTOR=1.0000
		CORRECTIONS=AIR_DENSITY_CORR;
		BEGIN_DATA
			-60.00		7.7390E-03
			-30.00		9.5733E-03
			30.00		10.703E-03
			60.00		7.9906E-03
		END_DATA
	END_SCAN  13
	BEGIN_SCAN  14
		TASK_NAME=MODE_INTERVAL
		PROGRAM=BeamAdjust 1.2
		MEAS_DATE=07-Oct-2010 14:26:48
		LINAC=A4
		MODALITY=X
		INPLANE_AXIS_DIR=TARGET_GUN
		CROSSPLANE_AXIS_DIR=LEFT_RIGHT
		DEPTH_AXIS_DIR=UP_DOWN
		ENERGY=6.00
		SSD=950.00
		WEDGE=None
		FIELD_INPLANE=100.00
		FIELD_CROSSPLANE=100.00
		FIELD_TYPE=RECTANGULAR
		GANTRY=0.00
		GANTRY_UPRIGHT_POSITION=0
		GANTRY_ROTATION=CW
		COLL_ANGLE=90.00
		COLL_OFFSET_INPLANE=0.00
		COLL_OFFSET_CROSSPLANE=0.00
		SCAN_DEVICE=STARCHECK
		ELECTROMETER=2D_ARRAY_INTERFACE
		DETECTOR=STARCHECK
		SCAN_CURVETYPE=INPLANE_PROFILE
		SCAN_DEPTH=0.00
		SCAN_OFFAXIS_CROSSPLANE=130.00
		SCAN_ANGLE=0.00
		SCAN_DIAGONAL=NOT_DIAGONAL
		MEAS_PRESET=TIME_PRESET
		MEAS_TIME=10.000
		MEAS_UNIT=GY
		PRESSURE=1013.25
		TEMPERATURE=20.00
		NORM_TEMPERATURE=20.00
		CORRECTION_FACTOR=1.0000
		CORRECTIONS=AIR_DENSITY_CORR;
		BEGIN_DATA
			-130.00		1.8551E-03
			-125.00		2.2451E-03
			-120.00		2.1817E-03
			-115.00		2.0557E-03
			-110.00		2.6002E-03
			-105.00		2.6255E-03
			-100.00		3.1784E-03
			-95.00		2.6126E-03
			-90.00		2.2452E-03
			-85.00		3.5689E-03
			-80.00		3.0412E-03
			-75.00		3.5878E-03
			-70.00		3.7510E-03
			-65.00		3.6233E-03
			-60.00		4.2471E-03
			-55.00		4.0417E-03
			-50.00		4.0936E-03
			-45.00		4.5630E-03
			-40.00		4.8329E-03
			-35.00		5.0643E-03
			-30.00		5.1746E-03
			-25.00		4.8452E-03
			-20.00		5.2615E-03
			-15.00		5.1302E-03
			-10.00		4.3905E-03
			-5.00		5.5848E-03
			0.00		5.8509E-03
			5.00		5.7019E-03
			10.00		5.8801E-03
			15.00		5.0142E-03
			20.00		5.2491E-03
			25.00		5.2819E-03
			30.00		5.2286E-03
			35.00		5.5588E-03
			40.00		5.3488E-03
			45.00		5.2439E-03
			50.00		4.8177E-03
			55.00		5.3516E-03
			60.00		4.7507E-03
			65.00		4.1491E-03
			70.00		4.2850E-03
			75.00		4.1740E-03
			80.00		4.4202E-03
			85.00		3.8242E-03
			90.00		3.3001E-03
			95.00		3.5760E-03
			100.00		3.8898E-03
			105.00		2.9165E-03
			110.00		2.6989E-03
			115.00		3.0585E-03
			120.00		2.7020E-03
			125.00		2.5913E-03
			130.00		2.2486E-03
		END_DATA
	END_SCAN  14
	BEGIN_SCAN  15
		TASK_NAME=MODE_INTERVAL
		PROGRAM=BeamAdjust 1.2
		MEAS_DATE=07-Oct-2010 14:26:48
		LINAC=A4
		MODALITY=X
		INPLANE_AXIS_DIR=TARGET_GUN
		CROSSPLANE_AXIS_DIR=LEFT_RIGHT
		DEPTH_AXIS_DIR=UP_DOWN
		ENERGY=6.00
		SSD=950.00
		WEDGE=None
		FIELD_INPLANE=100.00
		FIELD_CROSSPLANE=100.00
		FIELD_TYPE=RECTANGULAR
		GANTRY=0.00
		GANTRY_UPRIGHT_POSITION=0
		GANTRY_ROTATION=CW
		COLL_ANGLE=90.00
		COLL_OFFSET_INPLANE=0.00
		COLL_OFFSET_CROSSPLANE=0.00
		SCAN_DEVICE=STARCHECK
		ELECTROMETER=2D_ARRAY_INTERFACE
		DETECTOR=STARCHECK
		SCAN_CURVETYPE=INPLANE_PROFILE
		SCAN_DEPTH=0.00
		SCAN_OFFAXIS_CROSSPLANE=0.00
		SCAN_ANGLE=0.00
		SCAN_DIAGONAL=FIRST_DIAGONAL
		MEAS_PRESET=TIME_PRESET
		MEAS_TIME=10.000
		MEAS_UNIT=GY
		PRESSURE=1013.25
		TEMPERATURE=20.00
		NORM_TEMPERATURE=20.00
		CORRECTION_FACTOR=1.0000
		CORRECTIONS=AIR_DENSITY_CORR;
		BEGIN_DATA
			-172.40		2.4614E-03
			-169.40		2.5624E-03
			-166.40		3.5132E-03
			-163.40		3.5777E-03
			-160.40		3.5850E-03
			-157.40		3.8382E-03
			-154.40		3.4811E-03
			-151.40		3.9095E-03
			-148.40		4.8155E-03
			-145.40		4.8889E-03
			-142.40		5.3777E-03
			-139.40		5.4884E-03
			-136.40		5.6818E-03
			-133.40		6.3467E-03
			-130.40		6.6892E-03
			-127.40		6.8912E-03
			-124.40		7.7267E-03
			-121.40		8.3689E-03
			-118.40		9.2771E-03
			-115.40		9.9532E-03
			-112.40		10.336E-03
			-109.40		11.716E-03
			-106.40		13.291E-03
			-103.40		13.280E-03
			-100.40		14.500E-03
			-97.40		16.526E-03
			-94.40		18.290E-03
			-91.40		19.995E-03
			-88.40		22.539E-03
			-85.40		24.833E-03
			-82.40		28.234E-03
			-79.40		32.328E-03
			-76.40		38.624E-03
			-73.40		51.633E-03
			-70.40		86.814E-03
			-67.40		201.68E-03
			-64.40		378.67E-03
			-61.40		517.28E-03
			-58.40		590.09E-03
			-55.40		619.68E-03
			-52.40		634.00E-03
			-49.40		641.75E-03
			-46.40		646.60E-03
			-43.40		649.68E-03
			-40.40		653.54E-03
			-37.40		658.47E-03
			-34.40		658.77E-03
			-31.40		661.02E-03
			-28.40		659.98E-03
			-25.40		663.06E-03
			-22.40		663.43E-03
			-19.40		662.60E-03
			-16.40		666.04E-03
			-13.40		669.84E-03
			0.00		666.72E-03
			13.40		672.72E-03
			16.40		667.83E-03
			19.40		667.71E-03
			22.40		665.74E-03
			25.40		665.17E-03
			28.40		663.87E-03
			31.40		661.82E-03
			34.40		659.14E-03
			37.40		661.88E-03
			40.40		659.80E-03
			43.40		657.10E-03
			46.40		655.62E-03
			49.40		650.27E-03
			52.40		647.62E-03
			55.40		637.58E-03
			58.40		628.68E-03
			61.40		612.30E-03
			64.40		570.47E-03
			67.40		470.32E-03
			70.40		285.86E-03
			73.40		119.90E-03
			76.40		59.611E-03
			79.40		42.261E-03
			82.40		34.043E-03
			85.40		29.433E-03
			88.40		25.865E-03
			91.40		22.428E-03
			94.40		20.567E-03
			97.40		17.982E-03
			100.40		16.628E-03
			103.40		15.357E-03
			106.40		13.927E-03
			109.40		12.787E-03
			112.40		10.891E-03
			115.40		10.274E-03
			118.40		9.5450E-03
			121.40		8.6533E-03
			124.40		8.1064E-03
			127.40		8.1754E-03
			130.40		7.1784E-03
			133.40		6.4862E-03
			136.40		5.5111E-03
			139.40		4.7577E-03
			142.40		4.8449E-03
			145.40		4.4191E-03
			148.40		4.3781E-03
			151.40		3.7755E-03
			154.40		3.5499E-03
			157.40		3.5148E-03
			160.40		2.4533E-03
			163.40		2.3922E-03
			166.40		3.0120E-03
			169.40		2.7069E-03
			172.40		2.5041E-03
		END_DATA
	END_SCAN  15
	BEGIN_SCAN  16
		TASK_NAME=MODE_INTERVAL
		PROGRAM=BeamAdjust 1.2
		MEAS_DATE=07-Oct-2010 14:26:48
		LINAC=A4
		MODALITY=X
		INPLANE_AXIS_DIR=GUN_TARGET
		CROSSPLANE_AXIS_DIR=LEFT_RIGHT
		DEPTH_AXIS_DIR=UP_DOWN
		ENERGY=6.00
		SSD=950.00
		WEDGE=None
		FIELD_INPLANE=100.00
		FIELD_CROSSPLANE=100.00
		FIELD_TYPE=RECTANGULAR
		GANTRY=0.00
		GANTRY_UPRIGHT_POSITION=0
		GANTRY_ROTATION=CW
		COLL_ANGLE=90.00
		COLL_OFFSET_INPLANE=0.00
		COLL_OFFSET_CROSSPLANE=0.00
		SCAN_DEVICE=STARCHECK
		ELECTROMETER=2D_ARRAY_INTERFACE
		DETECTOR=STARCHECK
		SCAN_CURVETYPE=INPLANE_PROFILE
		SCAN_DEPTH=0.00
		SCAN_OFFAXIS_CROSSPLANE=0.00
		SCAN_ANGLE=0.00
		SCAN_DIAGONAL=SECOND_DIAGONAL
		MEAS_PRESET=TIME_PRESET
		MEAS_TIME=10.000
		MEAS_UNIT=GY
		PRESSURE=1013.25
		TEMPERATURE=20.00
		NORM_TEMPERATURE=20.00
		CORRECTION_FACTOR=1.0000
		CORRECTIONS=AIR_DENSITY_CORR;
		BEGIN_DATA
			-172.40		2.3269E-03
			-169.40		2.3016E-03
			-166.40		2.7133E-03
			-163.40		2.5872E-03
			-160.40		2.9772E-03
			-157.40		3.4444E-03
			-154.40		3.5615E-03
			-151.40		3.9268E-03
			-148.40		3.9253E-03
			-145.40		4.3025E-03
			-142.40		4.6339E-03
			-139.40		5.0677E-03
			-136.40		5.4427E-03
			-133.40		5.9780E-03
			-130.40		6.6077E-03
			-127.40		6.9558E-03
			-124.40		8.0734E-03
			-121.40		7.9664E-03
			-118.40		9.2475E-03
			-115.40		9.4261E-03
			-112.40		9.9434E-03
			-109.40		11.335E-03
			-106.40		12.295E-03
			-103.40		13.418E-03
			-100.40		14.756E-03
			-97.40		16.323E-03
			-94.40		17.269E-03
			-91.40		19.762E-03
			-88.40		21.243E-03
			-85.40		23.881E-03
			-82.40		27.039E-03
			-79.40		31.206E-03
			-76.40		37.839E-03
			-73.40		48.336E-03
			-70.40		75.772E-03
			-67.40		171.76E-03
			-64.40		357.04E-03
			-61.40		510.49E-03
			-58.40		591.81E-03
			-55.40		621.50E-03
			-52.40		639.22E-03
			-49.40		647.15E-03
			-46.40		651.64E-03
			-43.40		656.06E-03
			-40.40		657.94E-03
			-37.40		662.22E-03
			-34.40		662.58E-03
			-31.40		663.75E-03
			-28.40		666.43E-03
			-25.40		665.55E-03
			-22.40		663.83E-03
			-19.40		667.13E-03
			-16.40		667.81E-03
			-13.40		671.39E-03
			0.00		666.72E-03
			13.40		671.12E-03
			16.40		669.01E-03
			19.40		665.42E-03
			22.40		661.93E-03
			25.40		661.62E-03
			28.40		660.60E-03
			31.40		659.77E-03
			34.40		656.82E-03
			37.40		656.37E-03
			40.40		655.32E-03
			43.40		653.70E-03
			46.40		652.08E-03
			49.40		648.94E-03
			52.40		641.74E-03
			55.40		635.12E-03
			58.40		628.63E-03
			61.40		611.59E-03
			64.40		574.71E-03
			67.40		479.94E-03
			70.40		303.15E-03
			73.40		129.03E-03
			76.40		61.653E-03
			79.40		42.896E-03
			82.40		34.826E-03
			85.40		29.768E-03
			88.40		25.877E-03
			91.40		23.633E-03
			94.40		20.585E-03
			97.40		19.101E-03
			100.40		16.410E-03
			103.40		14.933E-03
			106.40		13.827E-03
			109.40		12.650E-03
			112.40		11.632E-03
			115.40		11.378E-03
			118.40		9.4572E-03
			121.40		9.0415E-03
			124.40		8.0332E-03
			127.40		7.5988E-03
			130.40		7.2621E-03
			133.40		6.9089E-03
			136.40		5.4839E-03
			139.40		6.4802E-03
			142.40		5.2978E-03
			145.40		5.4554E-03
			148.40		4.7494E-03
			151.40		4.1000E-03
			154.40		4.2977E-03
			157.40		4.3250E-03
			160.40		3.6791E-03
			163.40		3.9485E-03
			166.40		3.3765E-03
			169.40		2.6280E-03
			172.40		2.3419E-03
		END_DATA
	END_SCAN  16
END_SCAN_DATA
