BEGIN_SCAN_DATA
	FORMAT=CC-Export V1.9                  
	FILE_CREATION_DATE=07-Oct-2010 14:27:21
	LAST_MODIFIED=07-Oct-2010 14:27:21
	BEGIN_SCAN  1
		TASK_NAME=MODE_INTERVAL
		PROGRAM=BeamAdjust 1.2
		MEAS_DATE=07-Oct-2010 14:27:21
		LINAC=A4
		MODALITY=X
		INPLANE_AXIS_DIR=TARGET_GUN
		CROSSPLANE_AXIS_DIR=LEFT_RIGHT
		DEPTH_AXIS_DIR=UP_DOWN
		ENERGY=6.00
		SSD=950.00
		WEDGE=None
		FIELD_INPLANE=100.00
		FIELD_CROSSPLANE=100.00
		FIELD_TYPE=RECTANGULAR
		GANTRY=0.00
		GANTRY_UPRIGHT_POSITION=0
		GANTRY_ROTATION=CW
		COLL_ANGLE=90.00
		COLL_OFFSET_INPLANE=0.00
		COLL_OFFSET_CROSSPLANE=0.00
		SCAN_DEVICE=STARCHECK
		ELECTROMETER=2D_ARRAY_INTERFACE
		DETECTOR=STARCHECK
		SCAN_CURVETYPE=CROSSPLANE_PROFILE
		SCAN_DEPTH=0.00
		SCAN_OFFAXIS_INPLANE=-130.00
		SCAN_ANGLE=0.00
		SCAN_DIAGONAL=NOT_DIAGONAL
		MEAS_PRESET=TIME_PRESET
		MEAS_TIME=10.000
		MEAS_UNIT=GY
		PRESSURE=1013.25
		TEMPERATURE=20.00
		NORM_TEMPERATURE=20.00
		CORRECTION_FACTOR=1.0000
		CORRECTIONS=AIR_DENSITY_CORR;
		BEGIN_DATA
			-130.00		2.2401E-03
			-80.00		3.3962E-03
			-40.00		6.4619E-03
			40.00		6.1201E-03
			80.00		3.3716E-03
			130.00		1.7339E-03
		END_DATA
	END_SCAN  1
	BEGIN_SCAN  2
		TASK_NAME=MODE_INTERVAL
		PROGRAM=BeamAdjust 1.2
		MEAS_DATE=07-Oct-2010 14:27:21
		LINAC=A4
		MODALITY=X
		INPLANE_AXIS_DIR=TARGET_GUN
		CROSSPLANE_AXIS_DIR=LEFT_RIGHT
		DEPTH_AXIS_DIR=UP_DOWN
		ENERGY=6.00
		SSD=950.00
		WEDGE=None
		FIELD_INPLANE=100.00
		FIELD_CROSSPLANE=100.00
		FIELD_TYPE=RECTANGULAR
		GANTRY=0.00
		GANTRY_UPRIGHT_POSITION=0
		GANTRY_ROTATION=CW
		COLL_ANGLE=90.00
		COLL_OFFSET_INPLANE=0.00
		COLL_OFFSET_CROSSPLANE=0.00
		SCAN_DEVICE=STARCHECK
		ELECTROMETER=2D_ARRAY_INTERFACE
		DETECTOR=STARCHECK
		SCAN_CURVETYPE=CROSSPLANE_PROFILE
		SCAN_DEPTH=0.00
		SCAN_OFFAXIS_INPLANE=-100.00
		SCAN_ANGLE=0.00
		SCAN_DIAGONAL=NOT_DIAGONAL
		MEAS_PRESET=TIME_PRESET
		MEAS_TIME=10.000
		MEAS_UNIT=GY
		PRESSURE=1013.25
		TEMPERATURE=20.00
		NORM_TEMPERATURE=20.00
		CORRECTION_FACTOR=1.0000
		CORRECTIONS=AIR_DENSITY_CORR;
		BEGIN_DATA
			-60.00		9.4148E-03
			-30.00		13.021E-03
			30.00		13.267E-03
			60.00		9.0197E-03
		END_DATA
	END_SCAN  2
	BEGIN_SCAN  3
		TASK_NAME=MODE_INTERVAL
		PROGRAM=BeamAdjust 1.2
		MEAS_DATE=07-Oct-2010 14:27:21
		LINAC=A4
		MODALITY=X
		INPLANE_AXIS_DIR=TARGET_GUN
		CROSSPLANE_AXIS_DIR=LEFT_RIGHT
		DEPTH_AXIS_DIR=UP_DOWN
		ENERGY=6.00
		SSD=950.00
		WEDGE=None
		FIELD_INPLANE=100.00
		FIELD_CROSSPLANE=100.00
		FIELD_TYPE=RECTANGULAR
		GANTRY=0.00
		GANTRY_UPRIGHT_POSITION=0
		GANTRY_ROTATION=CW
		COLL_ANGLE=90.00
		COLL_OFFSET_INPLANE=0.00
		COLL_OFFSET_CROSSPLANE=0.00
		SCAN_DEVICE=STARCHECK
		ELECTROMETER=2D_ARRAY_INTERFACE
		DETECTOR=STARCHECK
		SCAN_CURVETYPE=CROSSPLANE_PROFILE
		SCAN_DEPTH=0.00
		SCAN_OFFAXIS_INPLANE=-50.00
		SCAN_ANGLE=0.00
		SCAN_DIAGONAL=NOT_DIAGONAL
		MEAS_PRESET=TIME_PRESET
		MEAS_TIME=10.000
		MEAS_UNIT=GY
		PRESSURE=1013.25
		TEMPERATURE=20.00
		NORM_TEMPERATURE=20.00
		CORRECTION_FACTOR=1.0000
		CORRECTIONS=AIR_DENSITY_CORR;
		BEGIN_DATA
			-30.00		108.06E-03
			-15.00		100.81E-03
			15.00		106.36E-03
			30.00		108.30E-03
		END_DATA
	END_SCAN  3
	BEGIN_SCAN  4
		TASK_NAME=MODE_INTERVAL
		PROGRAM=BeamAdjust 1.2
		MEAS_DATE=07-Oct-2010 14:27:21
		LINAC=A4
		MODALITY=X
		INPLANE_AXIS_DIR=TARGET_GUN
		CROSSPLANE_AXIS_DIR=LEFT_RIGHT
		DEPTH_AXIS_DIR=UP_DOWN
		ENERGY=6.00
		SSD=950.00
		WEDGE=None
		FIELD_INPLANE=100.00
		FIELD_CROSSPLANE=100.00
		FIELD_TYPE=RECTANGULAR
		GANTRY=0.00
		GANTRY_UPRIGHT_POSITION=0
		GANTRY_ROTATION=CW
		COLL_ANGLE=90.00
		COLL_OFFSET_INPLANE=0.00
		COLL_OFFSET_CROSSPLANE=0.00
		SCAN_DEVICE=STARCHECK
		ELECTROMETER=2D_ARRAY_INTERFACE
		DETECTOR=STARCHECK
		SCAN_CURVETYPE=CROSSPLANE_PROFILE
		SCAN_DEPTH=0.00
		SCAN_OFFAXIS_INPLANE=0.00
		SCAN_ANGLE=0.00
		SCAN_DIAGONAL=NOT_DIAGONAL
		MEAS_PRESET=TIME_PRESET
		MEAS_TIME=10.000
		MEAS_UNIT=GY
		PRESSURE=1013.25
		TEMPERATURE=20.00
		NORM_TEMPERATURE=20.00
		CORRECTION_FACTOR=1.0000
		CORRECTIONS=AIR_DENSITY_CORR;
		BEGIN_DATA
			-126.00		6.2379E-03
			-123.00		7.4503E-03
			-120.00		7.5508E-03
			-117.00		8.4385E-03
			-114.00		8.5747E-03
			-111.00		9.0551E-03
			-108.00		10.130E-03
			-105.00		10.850E-03
			-102.00		11.509E-03
			-99.00		13.054E-03
			-96.00		13.659E-03
			-93.00		15.171E-03
			-90.00		15.968E-03
			-87.00		17.989E-03
			-84.00		19.780E-03
			-81.00		21.628E-03
			-78.00		23.893E-03
			-75.00		26.707E-03
			-72.00		29.675E-03
			-69.00		33.801E-03
			-66.00		38.919E-03
			-63.00		44.935E-03
			-60.00		54.548E-03
			-57.00		72.233E-03
			-54.00		113.57E-03
			-51.00		288.20E-03
			-48.00		553.87E-03
			-45.00		617.19E-03
			-42.00		637.22E-03
			-39.00		649.64E-03
			-36.00		655.58E-03
			-33.00		656.00E-03
			-30.00		658.17E-03
			-27.00		660.72E-03
			-24.00		663.24E-03
			-21.00		662.92E-03
			-18.00		669.70E-03
			-15.00		669.91E-03
			-12.00		669.23E-03
			-9.00		671.65E-03
			-6.00		670.34E-03
			0.00		668.85E-03
			6.00		672.49E-03
			9.00		671.79E-03
			12.00		669.31E-03
			15.00		668.40E-03
			18.00		667.72E-03
			21.00		665.76E-03
			24.00		662.62E-03
			27.00		666.18E-03
			30.00		664.61E-03
			33.00		662.41E-03
			36.00		658.73E-03
			39.00		652.64E-03
			42.00		641.19E-03
			45.00		616.62E-03
			48.00		528.31E-03
			51.00		236.02E-03
			54.00		102.56E-03
			57.00		68.289E-03
			60.00		53.261E-03
			63.00		44.313E-03
			66.00		37.536E-03
			69.00		33.253E-03
			72.00		29.092E-03
			75.00		26.979E-03
			78.00		23.470E-03
			81.00		21.558E-03
			84.00		19.440E-03
			87.00		17.309E-03
			90.00		16.673E-03
			93.00		14.719E-03
			96.00		13.172E-03
			99.00		12.435E-03
			102.00		11.452E-03
			105.00		10.742E-03
			108.00		10.062E-03
			111.00		8.9413E-03
			114.00		8.7115E-03
			117.00		8.1425E-03
			120.00		7.2899E-03
			123.00		6.5705E-03
			126.00		6.9125E-03
		END_DATA
	END_SCAN  4
	BEGIN_SCAN  5
		TASK_NAME=MODE_INTERVAL
		PROGRAM=BeamAdjust 1.2
		MEAS_DATE=07-Oct-2010 14:27:21
		LINAC=A4
		MODALITY=X
		INPLANE_AXIS_DIR=TARGET_GUN
		CROSSPLANE_AXIS_DIR=LEFT_RIGHT
		DEPTH_AXIS_DIR=UP_DOWN
		ENERGY=6.00
		SSD=950.00
		WEDGE=None
		FIELD_INPLANE=100.00
		FIELD_CROSSPLANE=100.00
		FIELD_TYPE=RECTANGULAR
		GANTRY=0.00
		GANTRY_UPRIGHT_POSITION=0
		GANTRY_ROTATION=CW
		COLL_ANGLE=90.00
		COLL_OFFSET_INPLANE=0.00
		COLL_OFFSET_CROSSPLANE=0.00
		SCAN_DEVICE=STARCHECK
		ELECTROMETER=2D_ARRAY_INTERFACE
		DETECTOR=STARCHECK
		SCAN_CURVETYPE=CROSSPLANE_PROFILE
		SCAN_DEPTH=0.00
		SCAN_OFFAXIS_INPLANE=50.00
		SCAN_ANGLE=0.00
		SCAN_DIAGONAL=NOT_DIAGONAL
		MEAS_PRESET=TIME_PRESET
		MEAS_TIME=10.000
		MEAS_UNIT=GY
		PRESSURE=1013.25
		TEMPERATURE=20.00
		NORM_TEMPERATURE=20.00
		CORRECTION_FACTOR=1.0000
		CORRECTIONS=AIR_DENSITY_CORR;
		BEGIN_DATA
			-30.00		585.65E-03
			-15.00		595.65E-03
			15.00		583.43E-03
			30.00		581.37E-03
		END_DATA
	END_SCAN  5
	BEGIN_SCAN  6
		TASK_NAME=MODE_INTERVAL
		PROGRAM=BeamAdjust 1.2
		MEAS_DATE=07-Oct-2010 14:27:21
		LINAC=A4
		MODALITY=X
		INPLANE_AXIS_DIR=TARGET_GUN
		CROSSPLANE_AXIS_DIR=LEFT_RIGHT
		DEPTH_AXIS_DIR=UP_DOWN
		ENERGY=6.00
		SSD=950.00
		WEDGE=None
		FIELD_INPLANE=100.00
		FIELD_CROSSPLANE=100.00
		FIELD_TYPE=RECTANGULAR
		GANTRY=0.00
		GANTRY_UPRIGHT_POSITION=0
		GANTRY_ROTATION=CW
		COLL_ANGLE=90.00
		COLL_OFFSET_INPLANE=0.00
		COLL_OFFSET_CROSSPLANE=0.00
		SCAN_DEVICE=STARCHECK
		ELECTROMETER=2D_ARRAY_INTERFACE
		DETECTOR=STARCHECK
		SCAN_CURVETYPE=CROSSPLANE_PROFILE
		SCAN_DEPTH=0.00
		SCAN_OFFAXIS_INPLANE=100.00
		SCAN_ANGLE=0.00
		SCAN_DIAGONAL=NOT_DIAGONAL
		MEAS_PRESET=TIME_PRESET
		MEAS_TIME=10.000
		MEAS_UNIT=GY
		PRESSURE=1013.25
		TEMPERATURE=20.00
		NORM_TEMPERATURE=20.00
		CORRECTION_FACTOR=1.0000
		CORRECTIONS=AIR_DENSITY_CORR;
		BEGIN_DATA
			-60.00		10.921E-03
			-30.00		16.275E-03
			30.00		16.551E-03
			60.00		10.019E-03
		END_DATA
	END_SCAN  6
	BEGIN_SCAN  7
		TASK_NAME=MODE_INTERVAL
		PROGRAM=BeamAdjust 1.2
		MEAS_DATE=07-Oct-2010 14:27:21
		LINAC=A4
		MODALITY=X
		INPLANE_AXIS_DIR=TARGET_GUN
		CROSSPLANE_AXIS_DIR=LEFT_RIGHT
		DEPTH_AXIS_DIR=UP_DOWN
		ENERGY=6.00
		SSD=950.00
		WEDGE=None
		FIELD_INPLANE=100.00
		FIELD_CROSSPLANE=100.00
		FIELD_TYPE=RECTANGULAR
		GANTRY=0.00
		GANTRY_UPRIGHT_POSITION=0
		GANTRY_ROTATION=CW
		COLL_ANGLE=90.00
		COLL_OFFSET_INPLANE=0.00
		COLL_OFFSET_CROSSPLANE=0.00
		SCAN_DEVICE=STARCHECK
		ELECTROMETER=2D_ARRAY_INTERFACE
		DETECTOR=STARCHECK
		SCAN_CURVETYPE=CROSSPLANE_PROFILE
		SCAN_DEPTH=0.00
		SCAN_OFFAXIS_INPLANE=130.00
		SCAN_ANGLE=0.00
		SCAN_DIAGONAL=NOT_DIAGONAL
		MEAS_PRESET=TIME_PRESET
		MEAS_TIME=10.000
		MEAS_UNIT=GY
		PRESSURE=1013.25
		TEMPERATURE=20.00
		NORM_TEMPERATURE=20.00
		CORRECTION_FACTOR=1.0000
		CORRECTIONS=AIR_DENSITY_CORR;
		BEGIN_DATA
			-130.00		1.8625E-03
			-80.00		4.3947E-03
			-40.00		7.8913E-03
			40.00		7.7839E-03
			80.00		4.1860E-03
			130.00		2.4482E-03
		END_DATA
	END_SCAN  7
	BEGIN_SCAN  8
		TASK_NAME=MODE_INTERVAL
		PROGRAM=BeamAdjust 1.2
		MEAS_DATE=07-Oct-2010 14:27:21
		LINAC=A4
		MODALITY=X
		INPLANE_AXIS_DIR=TARGET_GUN
		CROSSPLANE_AXIS_DIR=LEFT_RIGHT
		DEPTH_AXIS_DIR=UP_DOWN
		ENERGY=6.00
		SSD=950.00
		WEDGE=None
		FIELD_INPLANE=100.00
		FIELD_CROSSPLANE=100.00
		FIELD_TYPE=RECTANGULAR
		GANTRY=0.00
		GANTRY_UPRIGHT_POSITION=0
		GANTRY_ROTATION=CW
		COLL_ANGLE=90.00
		COLL_OFFSET_INPLANE=0.00
		COLL_OFFSET_CROSSPLANE=0.00
		SCAN_DEVICE=STARCHECK
		ELECTROMETER=2D_ARRAY_INTERFACE
		DETECTOR=STARCHECK
		SCAN_CURVETYPE=INPLANE_PROFILE
		SCAN_DEPTH=0.00
		SCAN_OFFAXIS_CROSSPLANE=-130.00
		SCAN_ANGLE=0.00
		SCAN_DIAGONAL=NOT_DIAGONAL
		MEAS_PRESET=TIME_PRESET
		MEAS_TIME=10.000
		MEAS_UNIT=GY
		PRESSURE=1013.25
		TEMPERATURE=20.00
		NORM_TEMPERATURE=20.00
		CORRECTION_FACTOR=1.0000
		CORRECTIONS=AIR_DENSITY_CORR;
		BEGIN_DATA
			-130.00		2.2401E-03
			-125.00		2.3461E-03
			-120.00		2.6680E-03
			-115.00		3.1528E-03
			-110.00		3.4933E-03
			-105.00		3.3448E-03
			-100.00		3.7015E-03
			-95.00		4.1687E-03
			-90.00		4.1833E-03
			-85.00		4.2257E-03
			-80.00		4.0235E-03
			-75.00		4.5298E-03
			-70.00		4.5961E-03
			-65.00		4.5804E-03
			-60.00		4.8141E-03
			-55.00		5.6856E-03
			-50.00		4.0136E-03
			-45.00		4.4770E-03
			-40.00		4.9817E-03
			-35.00		5.0358E-03
			-30.00		5.2417E-03
			-25.00		4.8939E-03
			-20.00		5.0603E-03
			-15.00		4.4338E-03
			-10.00		5.3186E-03
			-5.00		5.5248E-03
			0.00		5.9554E-03
			5.00		6.6198E-03
			10.00		5.5426E-03
			15.00		5.4825E-03
			20.00		5.7337E-03
			25.00		4.9734E-03
			30.00		5.7723E-03
			35.00		5.3303E-03
			40.00		4.9128E-03
			45.00		4.9083E-03
			50.00		4.7483E-03
			55.00		4.5329E-03
			60.00		4.3728E-03
			65.00		4.2518E-03
			70.00		3.3698E-03
			75.00		4.3493E-03
			80.00		3.4200E-03
			85.00		3.5549E-03
			90.00		3.2218E-03
			95.00		3.4209E-03
			100.00		3.2356E-03
			105.00		2.3291E-03
			110.00		2.5351E-03
			115.00		2.2074E-03
			120.00		2.8813E-03
			125.00		2.3494E-03
			130.00		1.8625E-03
		END_DATA
	END_SCAN  8
	BEGIN_SCAN  9
		TASK_NAME=MODE_INTERVAL
		PROGRAM=BeamAdjust 1.2
		MEAS_DATE=07-Oct-2010 14:27:21
		LINAC=A4
		MODALITY=X
		INPLANE_AXIS_DIR=TARGET_GUN
		CROSSPLANE_AXIS_DIR=LEFT_RIGHT
		DEPTH_AXIS_DIR=UP_DOWN
		ENERGY=6.00
		SSD=950.00
		WEDGE=None
		FIELD_INPLANE=100.00
		FIELD_CROSSPLANE=100.00
		FIELD_TYPE=RECTANGULAR
		GANTRY=0.00
		GANTRY_UPRIGHT_POSITION=0
		GANTRY_ROTATION=CW
		COLL_ANGLE=90.00
		COLL_OFFSET_INPLANE=0.00
		COLL_OFFSET_CROSSPLANE=0.00
		SCAN_DEVICE=STARCHECK
		ELECTROMETER=2D_ARRAY_INTERFACE
		DETECTOR=STARCHECK
		SCAN_CURVETYPE=INPLANE_PROFILE
		SCAN_DEPTH=0.00
		SCAN_OFFAXIS_CROSSPLANE=-100.00
		SCAN_ANGLE=0.00
		SCAN_DIAGONAL=NOT_DIAGONAL
		MEAS_PRESET=TIME_PRESET
		MEAS_TIME=10.000
		MEAS_UNIT=GY
		PRESSURE=1013.25
		TEMPERATURE=20.00
		NORM_TEMPERATURE=20.00
		CORRECTION_FACTOR=1.0000
		CORRECTIONS=AIR_DENSITY_CORR;
		BEGIN_DATA
			-60.00		7.7421E-03
			-30.00		10.299E-03
			30.00		10.082E-03
			60.00		8.5643E-03
		END_DATA
	END_SCAN  9
	BEGIN_SCAN  10
		TASK_NAME=MODE_INTERVAL
		PROGRAM=BeamAdjust 1.2
		MEAS_DATE=07-Oct-2010 14:27:21
		LINAC=A4
		MODALITY=X
		INPLANE_AXIS_DIR=TARGET_GUN
		CROSSPLANE_AXIS_DIR=LEFT_RIGHT
		DEPTH_AXIS_DIR=UP_DOWN
		ENERGY=6.00
		SSD=950.00
		WEDGE=None
		FIELD_INPLANE=100.00
		FIELD_CROSSPLANE=100.00
		FIELD_TYPE=RECTANGULAR
		GANTRY=0.00
		GANTRY_UPRIGHT_POSITION=0
		GANTRY_ROTATION=CW
		COLL_ANGLE=90.00
		COLL_OFFSET_INPLANE=0.00
		COLL_OFFSET_CROSSPLANE=0.00
		SCAN_DEVICE=STARCHECK
		ELECTROMETER=2D_ARRAY_INTERFACE
		DETECTOR=STARCHECK
		SCAN_CURVETYPE=INPLANE_PROFILE
		SCAN_DEPTH=0.00
		SCAN_OFFAXIS_CROSSPLANE=-50.00
		SCAN_ANGLE=0.00
		SCAN_DIAGONAL=NOT_DIAGONAL
		MEAS_PRESET=TIME_PRESET
		MEAS_TIME=10.000
		MEAS_UNIT=GY
		PRESSURE=1013.25
		TEMPERATURE=20.00
		NORM_TEMPERATURE=20.00
		CORRECTION_FACTOR=1.0000
		CORRECTIONS=AIR_DENSITY_CORR;
		BEGIN_DATA
			-30.00		392.76E-03
			-15.00		390.81E-03
			15.00		381.60E-03
			30.00		372.11E-03
		END_DATA
	END_SCAN  10
	BEGIN_SCAN  11
		TASK_NAME=MODE_INTERVAL
		PROGRAM=BeamAdjust 1.2
		MEAS_DATE=07-Oct-2010 14:27:21
		LINAC=A4
		MODALITY=X
		INPLANE_AXIS_DIR=TARGET_GUN
		CROSSPLANE_AXIS_DIR=LEFT_RIGHT
		DEPTH_AXIS_DIR=UP_DOWN
		ENERGY=6.00
		SSD=950.00
		WEDGE=None
		FIELD_INPLANE=100.00
		FIELD_CROSSPLANE=100.00
		FIELD_TYPE=RECTANGULAR
		GANTRY=0.00
		GANTRY_UPRIGHT_POSITION=0
		GANTRY_ROTATION=CW
		COLL_ANGLE=90.00
		COLL_OFFSET_INPLANE=0.00
		COLL_OFFSET_CROSSPLANE=0.00
		SCAN_DEVICE=STARCHECK
		ELECTROMETER=2D_ARRAY_INTERFACE
		DETECTOR=STARCHECK
		SCAN_CURVETYPE=INPLANE_PROFILE
		SCAN_DEPTH=0.00
		SCAN_OFFAXIS_CROSSPLANE=0.00
		SCAN_ANGLE=0.00
		SCAN_DIAGONAL=NOT_DIAGONAL
		MEAS_PRESET=TIME_PRESET
		MEAS_TIME=10.000
		MEAS_UNIT=GY
		PRESSURE=1013.25
		TEMPERATURE=20.00
		NORM_TEMPERATURE=20.00
		CORRECTION_FACTOR=1.0000
		CORRECTIONS=AIR_DENSITY_CORR;
		BEGIN_DATA
			-126.00		8.5547E-03
			-123.00		7.8445E-03
			-120.00		9.3970E-03
			-117.00		10.120E-03
			-114.00		10.510E-03
			-111.00		11.231E-03
			-108.00		12.219E-03
			-105.00		13.047E-03
			-102.00		14.793E-03
			-99.00		15.441E-03
			-96.00		16.286E-03
			-93.00		18.103E-03
			-90.00		19.208E-03
			-87.00		21.070E-03
			-84.00		22.534E-03
			-81.00		25.075E-03
			-78.00		26.570E-03
			-75.00		28.913E-03
			-72.00		31.461E-03
			-69.00		34.408E-03
			-66.00		38.523E-03
			-63.00		42.648E-03
			-60.00		48.461E-03
			-57.00		57.501E-03
			-54.00		70.203E-03
			-51.00		98.686E-03
			-48.00		189.92E-03
			-45.00		443.80E-03
			-42.00		601.42E-03
			-39.00		635.50E-03
			-36.00		649.35E-03
			-33.00		656.20E-03
			-30.00		662.46E-03
			-27.00		664.91E-03
			-24.00		665.04E-03
			-21.00		664.67E-03
			-18.00		670.04E-03
			-15.00		668.42E-03
			-12.00		671.05E-03
			-9.00		673.37E-03
			-6.00		671.41E-03
			0.00		668.85E-03
			6.00		671.65E-03
			9.00		671.43E-03
			12.00		672.23E-03
			15.00		672.52E-03
			18.00		668.18E-03
			21.00		666.36E-03
			24.00		662.40E-03
			27.00		664.80E-03
			30.00		661.22E-03
			33.00		660.62E-03
			36.00		660.40E-03
			39.00		652.22E-03
			42.00		648.44E-03
			45.00		640.86E-03
			48.00		616.26E-03
			51.00		550.31E-03
			54.00		297.12E-03
			57.00		132.81E-03
			60.00		81.076E-03
			63.00		61.659E-03
			66.00		52.239E-03
			69.00		45.010E-03
			72.00		40.688E-03
			75.00		35.477E-03
			78.00		32.477E-03
			81.00		29.301E-03
			84.00		27.101E-03
			87.00		24.881E-03
			90.00		22.704E-03
			93.00		21.147E-03
			96.00		19.533E-03
			99.00		17.744E-03
			102.00		15.977E-03
			105.00		15.040E-03
			108.00		14.246E-03
			111.00		13.051E-03
			114.00		12.122E-03
			117.00		11.579E-03
			120.00		10.561E-03
			123.00		9.8309E-03
			126.00		8.6318E-03
		END_DATA
	END_SCAN  11
	BEGIN_SCAN  12
		TASK_NAME=MODE_INTERVAL
		PROGRAM=BeamAdjust 1.2
		MEAS_DATE=07-Oct-2010 14:27:21
		LINAC=A4
		MODALITY=X
		INPLANE_AXIS_DIR=TARGET_GUN
		CROSSPLANE_AXIS_DIR=LEFT_RIGHT
		DEPTH_AXIS_DIR=UP_DOWN
		ENERGY=6.00
		SSD=950.00
		WEDGE=None
		FIELD_INPLANE=100.00
		FIELD_CROSSPLANE=100.00
		FIELD_TYPE=RECTANGULAR
		GANTRY=0.00
		GANTRY_UPRIGHT_POSITION=0
		GANTRY_ROTATION=CW
		COLL_ANGLE=90.00
		COLL_OFFSET_INPLANE=0.00
		COLL_OFFSET_CROSSPLANE=0.00
		SCAN_DEVICE=STARCHECK
		ELECTROMETER=2D_ARRAY_INTERFACE
		DETECTOR=STARCHECK
		SCAN_CURVETYPE=INPLANE_PROFILE
		SCAN_DEPTH=0.00
		SCAN_OFFAXIS_CROSSPLANE=50.00
		SCAN_ANGLE=0.00
		SCAN_DIAGONAL=NOT_DIAGONAL
		MEAS_PRESET=TIME_PRESET
		MEAS_TIME=10.000
		MEAS_UNIT=GY
		PRESSURE=1013.25
		TEMPERATURE=20.00
		NORM_TEMPERATURE=20.00
		CORRECTION_FACTOR=1.0000
		CORRECTIONS=AIR_DENSITY_CORR;
		BEGIN_DATA
			-30.00		327.53E-03
			-15.00		338.61E-03
			15.00		347.25E-03
			30.00		349.95E-03
		END_DATA
	END_SCAN  12
	BEGIN_SCAN  13
		TASK_NAME=MODE_INTERVAL
		PROGRAM=BeamAdjust 1.2
		MEAS_DATE=07-Oct-2010 14:27:21
		LINAC=A4
		MODALITY=X
		INPLANE_AXIS_DIR=TARGET_GUN
		CROSSPLANE_AXIS_DIR=LEFT_RIGHT
		DEPTH_AXIS_DIR=UP_DOWN
		ENERGY=6.00
		SSD=950.00
		WEDGE=None
		FIELD_INPLANE=100.00
		FIELD_CROSSPLANE=100.00
		FIELD_TYPE=RECTANGULAR
		GANTRY=0.00
		GANTRY_UPRIGHT_POSITION=0
		GANTRY_ROTATION=CW
		COLL_ANGLE=90.00
		COLL_OFFSET_INPLANE=0.00
		COLL_OFFSET_CROSSPLANE=0.00
		SCAN_DEVICE=STARCHECK
		ELECTROMETER=2D_ARRAY_INTERFACE
		DETECTOR=STARCHECK
		SCAN_CURVETYPE=INPLANE_PROFILE
		SCAN_DEPTH=0.00
		SCAN_OFFAXIS_CROSSPLANE=100.00
		SCAN_ANGLE=0.00
		SCAN_DIAGONAL=NOT_DIAGONAL
		MEAS_PRESET=TIME_PRESET
		MEAS_TIME=10.000
		MEAS_UNIT=GY
		PRESSURE=1013.25
		TEMPERATURE=20.00
		NORM_TEMPERATURE=20.00
		CORRECTION_FACTOR=1.0000
		CORRECTIONS=AIR_DENSITY_CORR;
		BEGIN_DATA
			-60.00		7.6468E-03
			-30.00		9.8225E-03
			30.00		10.773E-03
			60.00		7.6012E-03
		END_DATA
	END_SCAN  13
	BEGIN_SCAN  14
		TASK_NAME=MODE_INTERVAL
		PROGRAM=BeamAdjust 1.2
		MEAS_DATE=07-Oct-2010 14:27:21
		LINAC=A4
		MODALITY=X
		INPLANE_AXIS_DIR=TARGET_GUN
		CROSSPLANE_AXIS_DIR=LEFT_RIGHT
		DEPTH_AXIS_DIR=UP_DOWN
		ENERGY=6.00
		SSD=950.00
		WEDGE=None
		FIELD_INPLANE=100.00
		FIELD_CROSSPLANE=100.00
		FIELD_TYPE=RECTANGULAR
		GANTRY=0.00
		GANTRY_UPRIGHT_POSITION=0
		GANTRY_ROTATION=CW
		COLL_ANGLE=90.00
		COLL_OFFSET_INPLANE=0.00
		COLL_OFFSET_CROSSPLANE=0.00
		SCAN_DEVICE=STARCHECK
		ELECTROMETER=2D_ARRAY_INTERFACE
		DETECTOR=STARCHECK
		SCAN_CURVETYPE=INPLANE_PROFILE
		SCAN_DEPTH=0.00
		SCAN_OFFAXIS_CROSSPLANE=130.00
		SCAN_ANGLE=0.00
		SCAN_DIAGONAL=NOT_DIAGONAL
		MEAS_PRESET=TIME_PRESET
		MEAS_TIME=10.000
		MEAS_UNIT=GY
		PRESSURE=1013.25
		TEMPERATURE=20.00
		NORM_TEMPERATURE=20.00
		CORRECTION_FACTOR=1.0000
		CORRECTIONS=AIR_DENSITY_CORR;
		BEGIN_DATA
			-130.00		1.7339E-03
			-125.00		2.5137E-03
			-120.00		1.9040E-03
			-115.00		2.4870E-03
			-110.00		2.3901E-03
			-105.00		2.6046E-03
			-100.00		3.2066E-03
			-95.00		2.5888E-03
			-90.00		2.5621E-03
			-85.00		3.4790E-03
			-80.00		3.4321E-03
			-75.00		3.1637E-03
			-70.00		3.7922E-03
			-65.00		3.6027E-03
			-60.00		4.2839E-03
			-55.00		4.1199E-03
			-50.00		3.7156E-03
			-45.00		4.2265E-03
			-40.00		4.8093E-03
			-35.00		4.8779E-03
			-30.00		5.8190E-03
			-25.00		4.7991E-03
			-20.00		5.1817E-03
			-15.00		5.1465E-03
			-10.00		4.5307E-03
			-5.00		5.4877E-03
			0.00		5.7539E-03
			5.00		6.0040E-03
			10.00		5.7282E-03
			15.00		5.1734E-03
			20.00		5.5052E-03
			25.00		5.5281E-03
			30.00		5.0860E-03
			35.00		5.1976E-03
			40.00		6.0094E-03
			45.00		5.1804E-03
			50.00		4.6879E-03
			55.00		5.2882E-03
			60.00		4.7167E-03
			65.00		4.2696E-03
			70.00		4.1922E-03
			75.00		4.4371E-03
			80.00		4.0421E-03
			85.00		4.0576E-03
			90.00		3.4548E-03
			95.00		3.5196E-03
			100.00		3.7769E-03
			105.00		2.8261E-03
			110.00		3.3670E-03
			115.00		2.9097E-03
			120.00		2.8908E-03
			125.00		2.2963E-03
			130.00		2.4482E-03
		END_DATA
	END_SCAN  14
	BEGIN_SCAN  15
		TASK_NAME=MODE_INTERVAL
		PROGRAM=BeamAdjust 1.2
		MEAS_DATE=07-Oct-2010 14:27:21
		LINAC=A4
		MODALITY=X
		INPLANE_AXIS_DIR=TARGET_GUN
		CROSSPLANE_AXIS_DIR=LEFT_RIGHT
		DEPTH_AXIS_DIR=UP_DOWN
		ENERGY=6.00
		SSD=950.00
		WEDGE=None
		FIELD_INPLANE=100.00
		FIELD_CROSSPLANE=100.00
		FIELD_TYPE=RECTANGULAR
		GANTRY=0.00
		GANTRY_UPRIGHT_POSITION=0
		GANTRY_ROTATION=CW
		COLL_ANGLE=90.00
		COLL_OFFSET_INPLANE=0.00
		COLL_OFFSET_CROSSPLANE=0.00
		SCAN_DEVICE=STARCHECK
		ELECTROMETER=2D_ARRAY_INTERFACE
		DETECTOR=STARCHECK
		SCAN_CURVETYPE=INPLANE_PROFILE
		SCAN_DEPTH=0.00
		SCAN_OFFAXIS_CROSSPLANE=0.00
		SCAN_ANGLE=0.00
		SCAN_DIAGONAL=FIRST_DIAGONAL
		MEAS_PRESET=TIME_PRESET
		MEAS_TIME=10.000
		MEAS_UNIT=GY
		PRESSURE=1013.25
		TEMPERATURE=20.00
		NORM_TEMPERATURE=20.00
		CORRECTION_FACTOR=1.0000
		CORRECTIONS=AIR_DENSITY_CORR;
		BEGIN_DATA
			-172.40		2.5532E-03
			-169.40		2.3946E-03
			-166.40		3.4054E-03
			-163.40		3.5643E-03
			-160.40		3.5447E-03
			-157.40		3.7712E-03
			-154.40		3.7368E-03
			-151.40		3.5901E-03
			-148.40		4.3596E-03
			-145.40		4.7191E-03
			-142.40		5.7220E-03
			-139.40		5.4795E-03
			-136.40		5.5255E-03
			-133.40		6.3304E-03
			-130.40		6.5659E-03
			-127.40		7.0544E-03
			-124.40		7.5947E-03
			-121.40		8.3852E-03
			-118.40		9.2518E-03
			-115.40		9.7693E-03
			-112.40		10.336E-03
			-109.40		11.685E-03
			-106.40		12.603E-03
			-103.40		13.200E-03
			-100.40		14.696E-03
			-97.40		16.510E-03
			-94.40		18.031E-03
			-91.40		20.057E-03
			-88.40		22.558E-03
			-85.40		24.940E-03
			-82.40		28.193E-03
			-79.40		31.966E-03
			-76.40		38.129E-03
			-73.40		50.236E-03
			-70.40		81.513E-03
			-67.40		184.96E-03
			-64.40		357.08E-03
			-61.40		502.94E-03
			-58.40		585.41E-03
			-55.40		619.45E-03
			-52.40		634.65E-03
			-49.40		643.39E-03
			-46.40		647.96E-03
			-43.40		651.70E-03
			-40.40		655.45E-03
			-37.40		660.40E-03
			-34.40		660.59E-03
			-31.40		663.32E-03
			-28.40		661.78E-03
			-25.40		665.04E-03
			-22.40		664.82E-03
			-19.40		665.11E-03
			-16.40		667.87E-03
			-13.40		671.77E-03
			0.00		668.85E-03
			13.40		674.55E-03
			16.40		670.28E-03
			19.40		669.43E-03
			22.40		667.86E-03
			25.40		666.85E-03
			28.40		665.93E-03
			31.40		663.62E-03
			34.40		661.06E-03
			37.40		663.93E-03
			40.40		661.45E-03
			43.40		658.69E-03
			46.40		657.55E-03
			49.40		652.43E-03
			52.40		649.62E-03
			55.40		639.59E-03
			58.40		631.19E-03
			61.40		614.62E-03
			64.40		574.25E-03
			67.40		475.53E-03
			70.40		297.34E-03
			73.40		127.02E-03
			76.40		61.574E-03
			79.40		42.890E-03
			82.40		34.396E-03
			85.40		29.090E-03
			88.40		26.505E-03
			91.40		22.640E-03
			94.40		20.382E-03
			97.40		18.169E-03
			100.40		16.598E-03
			103.40		15.695E-03
			106.40		13.970E-03
			109.40		12.862E-03
			112.40		10.833E-03
			115.40		10.765E-03
			118.40		9.3143E-03
			121.40		8.5672E-03
			124.40		8.1198E-03
			127.40		7.6659E-03
			130.40		8.0163E-03
			133.40		6.2759E-03
			136.40		5.6162E-03
			139.40		4.7784E-03
			142.40		4.3306E-03
			145.40		4.5157E-03
			148.40		4.5053E-03
			151.40		3.4703E-03
			154.40		3.7646E-03
			157.40		3.1198E-03
			160.40		2.7159E-03
			163.40		2.2567E-03
			166.40		2.9495E-03
			169.40		2.4136E-03
			172.40		3.0145E-03
		END_DATA
	END_SCAN  15
	BEGIN_SCAN  16
		TASK_NAME=MODE_INTERVAL
		PROGRAM=BeamAdjust 1.2
		MEAS_DATE=07-Oct-2010 14:27:21
		LINAC=A4
		MODALITY=X
		INPLANE_AXIS_DIR=GUN_TARGET
		CROSSPLANE_AXIS_DIR=LEFT_RIGHT
		DEPTH_AXIS_DIR=UP_DOWN
		ENERGY=6.00
		SSD=950.00
		WEDGE=None
		FIELD_INPLANE=100.00
		FIELD_CROSSPLANE=100.00
		FIELD_TYPE=RECTANGULAR
		GANTRY=0.00
		GANTRY_UPRIGHT_POSITION=0
		GANTRY_ROTATION=CW
		COLL_ANGLE=90.00
		COLL_OFFSET_INPLANE=0.00
		COLL_OFFSET_CROSSPLANE=0.00
		SCAN_DEVICE=STARCHECK
		ELECTROMETER=2D_ARRAY_INTERFACE
		DETECTOR=STARCHECK
		SCAN_CURVETYPE=INPLANE_PROFILE
		SCAN_DEPTH=0.00
		SCAN_OFFAXIS_CROSSPLANE=0.00
		SCAN_ANGLE=0.00
		SCAN_DIAGONAL=SECOND_DIAGONAL
		MEAS_PRESET=TIME_PRESET
		MEAS_TIME=10.000
		MEAS_UNIT=GY
		PRESSURE=1013.25
		TEMPERATURE=20.00
		NORM_TEMPERATURE=20.00
		CORRECTION_FACTOR=1.0000
		CORRECTIONS=AIR_DENSITY_CORR;
		BEGIN_DATA
			-172.40		2.2169E-03
			-169.40		2.6561E-03
			-166.40		2.6671E-03
			-163.40		3.1308E-03
			-160.40		2.8107E-03
			-157.40		3.3791E-03
			-154.40		3.6148E-03
			-151.40		3.5709E-03
			-148.40		4.1172E-03
			-145.40		4.0995E-03
			-142.40		4.9132E-03
			-139.40		4.7621E-03
			-136.40		5.3805E-03
			-133.40		6.0357E-03
			-130.40		6.6077E-03
			-127.40		6.9721E-03
			-124.40		7.9419E-03
			-121.40		8.8841E-03
			-118.40		8.9008E-03
			-115.40		9.3594E-03
			-112.40		9.9866E-03
			-109.40		11.160E-03
			-106.40		12.329E-03
			-103.40		13.427E-03
			-100.40		14.580E-03
			-97.40		15.988E-03
			-94.40		17.300E-03
			-91.40		19.606E-03
			-88.40		21.234E-03
			-85.40		23.715E-03
			-82.40		26.782E-03
			-79.40		31.814E-03
			-76.40		36.762E-03
			-73.40		47.484E-03
			-70.40		72.063E-03
			-67.40		158.08E-03
			-64.40		336.56E-03
			-61.40		495.51E-03
			-58.40		586.78E-03
			-55.40		620.67E-03
			-52.40		640.31E-03
			-49.40		648.24E-03
			-46.40		653.54E-03
			-43.40		657.78E-03
			-40.40		659.95E-03
			-37.40		664.09E-03
			-34.40		664.13E-03
			-31.40		665.39E-03
			-28.40		668.34E-03
			-25.40		667.82E-03
			-22.40		665.92E-03
			-19.40		668.99E-03
			-16.40		669.84E-03
			-13.40		673.15E-03
			0.00		668.85E-03
			13.40		672.99E-03
			16.40		670.92E-03
			19.40		667.02E-03
			22.40		663.88E-03
			25.40		663.74E-03
			28.40		662.60E-03
			31.40		661.10E-03
			34.40		658.66E-03
			37.40		658.28E-03
			40.40		657.41E-03
			43.40		655.38E-03
			46.40		653.91E-03
			49.40		650.83E-03
			52.40		643.53E-03
			55.40		637.07E-03
			58.40		630.55E-03
			61.40		613.77E-03
			64.40		577.78E-03
			67.40		484.63E-03
			70.40		313.75E-03
			73.40		135.78E-03
			76.40		64.261E-03
			79.40		43.692E-03
			82.40		35.396E-03
			85.40		30.262E-03
			88.40		26.246E-03
			91.40		23.669E-03
			94.40		21.201E-03
			97.40		18.868E-03
			100.40		16.575E-03
			103.40		15.049E-03
			106.40		14.275E-03
			109.40		13.316E-03
			112.40		11.727E-03
			115.40		10.659E-03
			118.40		9.7567E-03
			121.40		9.1040E-03
			124.40		8.0706E-03
			127.40		7.5704E-03
			130.40		7.6891E-03
			133.40		6.4522E-03
			136.40		6.1630E-03
			139.40		6.1930E-03
			142.40		5.4383E-03
			145.40		5.5784E-03
			148.40		4.6231E-03
			151.40		4.7177E-03
			154.40		4.1595E-03
			157.40		4.0967E-03
			160.40		3.5226E-03
			163.40		3.8494E-03
			166.40		3.5611E-03
			169.40		2.6235E-03
			172.40		2.5019E-03
		END_DATA
	END_SCAN  16
END_SCAN_DATA
