BEGIN_SCAN_DATA
	FORMAT=CC-Export V1.9                  
	FILE_CREATION_DATE=07-Oct-2010 14:27:47
	LAST_MODIFIED=07-Oct-2010 14:27:47
	BEGIN_SCAN  1
		TASK_NAME=MODE_INTERVAL
		PROGRAM=BeamAdjust 1.2
		MEAS_DATE=07-Oct-2010 14:27:47
		LINAC=A4
		MODALITY=X
		INPLANE_AXIS_DIR=TARGET_GUN
		CROSSPLANE_AXIS_DIR=LEFT_RIGHT
		DEPTH_AXIS_DIR=UP_DOWN
		ENERGY=6.00
		SSD=950.00
		WEDGE=None
		FIELD_INPLANE=100.00
		FIELD_CROSSPLANE=100.00
		FIELD_TYPE=RECTANGULAR
		GANTRY=0.00
		GANTRY_UPRIGHT_POSITION=0
		GANTRY_ROTATION=CW
		COLL_ANGLE=90.00
		COLL_OFFSET_INPLANE=0.00
		COLL_OFFSET_CROSSPLANE=0.00
		SCAN_DEVICE=STARCHECK
		ELECTROMETER=2D_ARRAY_INTERFACE
		DETECTOR=STARCHECK
		SCAN_CURVETYPE=CROSSPLANE_PROFILE
		SCAN_DEPTH=0.00
		SCAN_OFFAXIS_INPLANE=-130.00
		SCAN_ANGLE=0.00
		SCAN_DIAGONAL=NOT_DIAGONAL
		MEAS_PRESET=TIME_PRESET
		MEAS_TIME=10.000
		MEAS_UNIT=GY
		PRESSURE=1013.25
		TEMPERATURE=20.00
		NORM_TEMPERATURE=20.00
		CORRECTION_FACTOR=1.0000
		CORRECTIONS=AIR_DENSITY_CORR;
		BEGIN_DATA
			-130.00		2.0767E-03
			-80.00		3.7339E-03
			-40.00		6.7182E-03
			40.00		6.1666E-03
			80.00		2.9451E-03
			130.00		1.7010E-03
		END_DATA
	END_SCAN  1
	BEGIN_SCAN  2
		TASK_NAME=MODE_INTERVAL
		PROGRAM=BeamAdjust 1.2
		MEAS_DATE=07-Oct-2010 14:27:47
		LINAC=A4
		MODALITY=X
		INPLANE_AXIS_DIR=TARGET_GUN
		CROSSPLANE_AXIS_DIR=LEFT_RIGHT
		DEPTH_AXIS_DIR=UP_DOWN
		ENERGY=6.00
		SSD=950.00
		WEDGE=None
		FIELD_INPLANE=100.00
		FIELD_CROSSPLANE=100.00
		FIELD_TYPE=RECTANGULAR
		GANTRY=0.00
		GANTRY_UPRIGHT_POSITION=0
		GANTRY_ROTATION=CW
		COLL_ANGLE=90.00
		COLL_OFFSET_INPLANE=0.00
		COLL_OFFSET_CROSSPLANE=0.00
		SCAN_DEVICE=STARCHECK
		ELECTROMETER=2D_ARRAY_INTERFACE
		DETECTOR=STARCHECK
		SCAN_CURVETYPE=CROSSPLANE_PROFILE
		SCAN_DEPTH=0.00
		SCAN_OFFAXIS_INPLANE=-100.00
		SCAN_ANGLE=0.00
		SCAN_DIAGONAL=NOT_DIAGONAL
		MEAS_PRESET=TIME_PRESET
		MEAS_TIME=10.000
		MEAS_UNIT=GY
		PRESSURE=1013.25
		TEMPERATURE=20.00
		NORM_TEMPERATURE=20.00
		CORRECTION_FACTOR=1.0000
		CORRECTIONS=AIR_DENSITY_CORR;
		BEGIN_DATA
			-60.00		9.4431E-03
			-30.00		12.775E-03
			30.00		13.401E-03
			60.00		8.8374E-03
		END_DATA
	END_SCAN  2
	BEGIN_SCAN  3
		TASK_NAME=MODE_INTERVAL
		PROGRAM=BeamAdjust 1.2
		MEAS_DATE=07-Oct-2010 14:27:47
		LINAC=A4
		MODALITY=X
		INPLANE_AXIS_DIR=TARGET_GUN
		CROSSPLANE_AXIS_DIR=LEFT_RIGHT
		DEPTH_AXIS_DIR=UP_DOWN
		ENERGY=6.00
		SSD=950.00
		WEDGE=None
		FIELD_INPLANE=100.00
		FIELD_CROSSPLANE=100.00
		FIELD_TYPE=RECTANGULAR
		GANTRY=0.00
		GANTRY_UPRIGHT_POSITION=0
		GANTRY_ROTATION=CW
		COLL_ANGLE=90.00
		COLL_OFFSET_INPLANE=0.00
		COLL_OFFSET_CROSSPLANE=0.00
		SCAN_DEVICE=STARCHECK
		ELECTROMETER=2D_ARRAY_INTERFACE
		DETECTOR=STARCHECK
		SCAN_CURVETYPE=CROSSPLANE_PROFILE
		SCAN_DEPTH=0.00
		SCAN_OFFAXIS_INPLANE=-50.00
		SCAN_ANGLE=0.00
		SCAN_DIAGONAL=NOT_DIAGONAL
		MEAS_PRESET=TIME_PRESET
		MEAS_TIME=10.000
		MEAS_UNIT=GY
		PRESSURE=1013.25
		TEMPERATURE=20.00
		NORM_TEMPERATURE=20.00
		CORRECTION_FACTOR=1.0000
		CORRECTIONS=AIR_DENSITY_CORR;
		BEGIN_DATA
			-30.00		100.74E-03
			-15.00		94.975E-03
			15.00		99.487E-03
			30.00		100.47E-03
		END_DATA
	END_SCAN  3
	BEGIN_SCAN  4
		TASK_NAME=MODE_INTERVAL
		PROGRAM=BeamAdjust 1.2
		MEAS_DATE=07-Oct-2010 14:27:47
		LINAC=A4
		MODALITY=X
		INPLANE_AXIS_DIR=TARGET_GUN
		CROSSPLANE_AXIS_DIR=LEFT_RIGHT
		DEPTH_AXIS_DIR=UP_DOWN
		ENERGY=6.00
		SSD=950.00
		WEDGE=None
		FIELD_INPLANE=100.00
		FIELD_CROSSPLANE=100.00
		FIELD_TYPE=RECTANGULAR
		GANTRY=0.00
		GANTRY_UPRIGHT_POSITION=0
		GANTRY_ROTATION=CW
		COLL_ANGLE=90.00
		COLL_OFFSET_INPLANE=0.00
		COLL_OFFSET_CROSSPLANE=0.00
		SCAN_DEVICE=STARCHECK
		ELECTROMETER=2D_ARRAY_INTERFACE
		DETECTOR=STARCHECK
		SCAN_CURVETYPE=CROSSPLANE_PROFILE
		SCAN_DEPTH=0.00
		SCAN_OFFAXIS_INPLANE=0.00
		SCAN_ANGLE=0.00
		SCAN_DIAGONAL=NOT_DIAGONAL
		MEAS_PRESET=TIME_PRESET
		MEAS_TIME=10.000
		MEAS_UNIT=GY
		PRESSURE=1013.25
		TEMPERATURE=20.00
		NORM_TEMPERATURE=20.00
		CORRECTION_FACTOR=1.0000
		CORRECTIONS=AIR_DENSITY_CORR;
		BEGIN_DATA
			-126.00		6.3275E-03
			-123.00		7.1830E-03
			-120.00		7.7351E-03
			-117.00		8.2027E-03
			-114.00		8.6784E-03
			-111.00		9.1577E-03
			-108.00		10.062E-03
			-105.00		10.872E-03
			-102.00		11.273E-03
			-99.00		12.936E-03
			-96.00		14.191E-03
			-93.00		14.955E-03
			-90.00		16.482E-03
			-87.00		17.759E-03
			-84.00		19.895E-03
			-81.00		21.802E-03
			-78.00		23.368E-03
			-75.00		26.639E-03
			-72.00		29.577E-03
			-69.00		33.806E-03
			-66.00		39.135E-03
			-63.00		44.526E-03
			-60.00		54.695E-03
			-57.00		72.099E-03
			-54.00		113.43E-03
			-51.00		287.96E-03
			-48.00		554.12E-03
			-45.00		617.30E-03
			-42.00		637.00E-03
			-39.00		649.59E-03
			-36.00		655.40E-03
			-33.00		656.20E-03
			-30.00		658.03E-03
			-27.00		660.63E-03
			-24.00		663.30E-03
			-21.00		663.06E-03
			-18.00		669.14E-03
			-15.00		669.52E-03
			-12.00		669.09E-03
			-9.00		671.37E-03
			-6.00		670.12E-03
			0.00		669.30E-03
			6.00		672.45E-03
			9.00		671.75E-03
			12.00		669.29E-03
			15.00		668.32E-03
			18.00		667.51E-03
			21.00		665.54E-03
			24.00		662.64E-03
			27.00		666.28E-03
			30.00		664.57E-03
			33.00		661.93E-03
			36.00		659.09E-03
			39.00		652.68E-03
			42.00		641.33E-03
			45.00		616.65E-03
			48.00		529.01E-03
			51.00		236.21E-03
			54.00		102.29E-03
			57.00		68.614E-03
			60.00		53.159E-03
			63.00		44.085E-03
			66.00		37.709E-03
			69.00		32.710E-03
			72.00		29.473E-03
			75.00		26.499E-03
			78.00		24.066E-03
			81.00		21.310E-03
			84.00		19.438E-03
			87.00		17.326E-03
			90.00		16.684E-03
			93.00		14.837E-03
			96.00		13.313E-03
			99.00		12.752E-03
			102.00		11.302E-03
			105.00		10.781E-03
			108.00		10.039E-03
			111.00		8.9635E-03
			114.00		8.3661E-03
			117.00		7.7566E-03
			120.00		7.2810E-03
			123.00		7.2035E-03
			126.00		6.5366E-03
		END_DATA
	END_SCAN  4
	BEGIN_SCAN  5
		TASK_NAME=MODE_INTERVAL
		PROGRAM=BeamAdjust 1.2
		MEAS_DATE=07-Oct-2010 14:27:47
		LINAC=A4
		MODALITY=X
		INPLANE_AXIS_DIR=TARGET_GUN
		CROSSPLANE_AXIS_DIR=LEFT_RIGHT
		DEPTH_AXIS_DIR=UP_DOWN
		ENERGY=6.00
		SSD=950.00
		WEDGE=None
		FIELD_INPLANE=100.00
		FIELD_CROSSPLANE=100.00
		FIELD_TYPE=RECTANGULAR
		GANTRY=0.00
		GANTRY_UPRIGHT_POSITION=0
		GANTRY_ROTATION=CW
		COLL_ANGLE=90.00
		COLL_OFFSET_INPLANE=0.00
		COLL_OFFSET_CROSSPLANE=0.00
		SCAN_DEVICE=STARCHECK
		ELECTROMETER=2D_ARRAY_INTERFACE
		DETECTOR=STARCHECK
		SCAN_CURVETYPE=CROSSPLANE_PROFILE
		SCAN_DEPTH=0.00
		SCAN_OFFAXIS_INPLANE=50.00
		SCAN_ANGLE=0.00
		SCAN_DIAGONAL=NOT_DIAGONAL
		MEAS_PRESET=TIME_PRESET
		MEAS_TIME=10.000
		MEAS_UNIT=GY
		PRESSURE=1013.25
		TEMPERATURE=20.00
		NORM_TEMPERATURE=20.00
		CORRECTION_FACTOR=1.0000
		CORRECTIONS=AIR_DENSITY_CORR;
		BEGIN_DATA
			-30.00		595.06E-03
			-15.00		604.02E-03
			15.00		595.40E-03
			30.00		592.89E-03
		END_DATA
	END_SCAN  5
	BEGIN_SCAN  6
		TASK_NAME=MODE_INTERVAL
		PROGRAM=BeamAdjust 1.2
		MEAS_DATE=07-Oct-2010 14:27:47
		LINAC=A4
		MODALITY=X
		INPLANE_AXIS_DIR=TARGET_GUN
		CROSSPLANE_AXIS_DIR=LEFT_RIGHT
		DEPTH_AXIS_DIR=UP_DOWN
		ENERGY=6.00
		SSD=950.00
		WEDGE=None
		FIELD_INPLANE=100.00
		FIELD_CROSSPLANE=100.00
		FIELD_TYPE=RECTANGULAR
		GANTRY=0.00
		GANTRY_UPRIGHT_POSITION=0
		GANTRY_ROTATION=CW
		COLL_ANGLE=90.00
		COLL_OFFSET_INPLANE=0.00
		COLL_OFFSET_CROSSPLANE=0.00
		SCAN_DEVICE=STARCHECK
		ELECTROMETER=2D_ARRAY_INTERFACE
		DETECTOR=STARCHECK
		SCAN_CURVETYPE=CROSSPLANE_PROFILE
		SCAN_DEPTH=0.00
		SCAN_OFFAXIS_INPLANE=100.00
		SCAN_ANGLE=0.00
		SCAN_DIAGONAL=NOT_DIAGONAL
		MEAS_PRESET=TIME_PRESET
		MEAS_TIME=10.000
		MEAS_UNIT=GY
		PRESSURE=1013.25
		TEMPERATURE=20.00
		NORM_TEMPERATURE=20.00
		CORRECTION_FACTOR=1.0000
		CORRECTIONS=AIR_DENSITY_CORR;
		BEGIN_DATA
			-60.00		11.085E-03
			-30.00		16.982E-03
			30.00		16.280E-03
			60.00		10.140E-03
		END_DATA
	END_SCAN  6
	BEGIN_SCAN  7
		TASK_NAME=MODE_INTERVAL
		PROGRAM=BeamAdjust 1.2
		MEAS_DATE=07-Oct-2010 14:27:47
		LINAC=A4
		MODALITY=X
		INPLANE_AXIS_DIR=TARGET_GUN
		CROSSPLANE_AXIS_DIR=LEFT_RIGHT
		DEPTH_AXIS_DIR=UP_DOWN
		ENERGY=6.00
		SSD=950.00
		WEDGE=None
		FIELD_INPLANE=100.00
		FIELD_CROSSPLANE=100.00
		FIELD_TYPE=RECTANGULAR
		GANTRY=0.00
		GANTRY_UPRIGHT_POSITION=0
		GANTRY_ROTATION=CW
		COLL_ANGLE=90.00
		COLL_OFFSET_INPLANE=0.00
		COLL_OFFSET_CROSSPLANE=0.00
		SCAN_DEVICE=STARCHECK
		ELECTROMETER=2D_ARRAY_INTERFACE
		DETECTOR=STARCHECK
		SCAN_CURVETYPE=CROSSPLANE_PROFILE
		SCAN_DEPTH=0.00
		SCAN_OFFAXIS_INPLANE=130.00
		SCAN_ANGLE=0.00
		SCAN_DIAGONAL=NOT_DIAGONAL
		MEAS_PRESET=TIME_PRESET
		MEAS_TIME=10.000
		MEAS_UNIT=GY
		PRESSURE=1013.25
		TEMPERATURE=20.00
		NORM_TEMPERATURE=20.00
		CORRECTION_FACTOR=1.0000
		CORRECTIONS=AIR_DENSITY_CORR;
		BEGIN_DATA
			-130.00		1.9144E-03
			-80.00		4.2266E-03
			-40.00		7.8524E-03
			40.00		7.7231E-03
			80.00		4.7588E-03
			130.00		2.5058E-03
		END_DATA
	END_SCAN  7
	BEGIN_SCAN  8
		TASK_NAME=MODE_INTERVAL
		PROGRAM=BeamAdjust 1.2
		MEAS_DATE=07-Oct-2010 14:27:47
		LINAC=A4
		MODALITY=X
		INPLANE_AXIS_DIR=TARGET_GUN
		CROSSPLANE_AXIS_DIR=LEFT_RIGHT
		DEPTH_AXIS_DIR=UP_DOWN
		ENERGY=6.00
		SSD=950.00
		WEDGE=None
		FIELD_INPLANE=100.00
		FIELD_CROSSPLANE=100.00
		FIELD_TYPE=RECTANGULAR
		GANTRY=0.00
		GANTRY_UPRIGHT_POSITION=0
		GANTRY_ROTATION=CW
		COLL_ANGLE=90.00
		COLL_OFFSET_INPLANE=0.00
		COLL_OFFSET_CROSSPLANE=0.00
		SCAN_DEVICE=STARCHECK
		ELECTROMETER=2D_ARRAY_INTERFACE
		DETECTOR=STARCHECK
		SCAN_CURVETYPE=INPLANE_PROFILE
		SCAN_DEPTH=0.00
		SCAN_OFFAXIS_CROSSPLANE=-130.00
		SCAN_ANGLE=0.00
		SCAN_DIAGONAL=NOT_DIAGONAL
		MEAS_PRESET=TIME_PRESET
		MEAS_TIME=10.000
		MEAS_UNIT=GY
		PRESSURE=1013.25
		TEMPERATURE=20.00
		NORM_TEMPERATURE=20.00
		CORRECTION_FACTOR=1.0000
		CORRECTIONS=AIR_DENSITY_CORR;
		BEGIN_DATA
			-130.00		2.0767E-03
			-125.00		2.5854E-03
			-120.00		2.6798E-03
			-115.00		2.8999E-03
			-110.00		3.0904E-03
			-105.00		3.7795E-03
			-100.00		3.4948E-03
			-95.00		4.6828E-03
			-90.00		4.1137E-03
			-85.00		4.1430E-03
			-80.00		4.1184E-03
			-75.00		4.3412E-03
			-70.00		4.5294E-03
			-65.00		4.6381E-03
			-60.00		4.9584E-03
			-55.00		5.6485E-03
			-50.00		3.8862E-03
			-45.00		4.3776E-03
			-40.00		4.6509E-03
			-35.00		5.3434E-03
			-30.00		5.5142E-03
			-25.00		4.8717E-03
			-20.00		4.9329E-03
			-15.00		5.0250E-03
			-10.00		4.8804E-03
			-5.00		5.9400E-03
			0.00		5.5331E-03
			5.00		6.6538E-03
			10.00		5.6270E-03
			15.00		5.2793E-03
			20.00		5.8860E-03
			25.00		4.7948E-03
			30.00		5.4707E-03
			35.00		5.9040E-03
			40.00		4.7955E-03
			45.00		4.6567E-03
			50.00		5.1976E-03
			55.00		4.0618E-03
			60.00		4.8032E-03
			65.00		4.0534E-03
			70.00		3.7145E-03
			75.00		4.1308E-03
			80.00		3.4750E-03
			85.00		3.7777E-03
			90.00		3.0108E-03
			95.00		3.1829E-03
			100.00		3.1161E-03
			105.00		2.7028E-03
			110.00		2.3114E-03
			115.00		2.5030E-03
			120.00		2.2182E-03
			125.00		2.3286E-03
			130.00		1.9144E-03
		END_DATA
	END_SCAN  8
	BEGIN_SCAN  9
		TASK_NAME=MODE_INTERVAL
		PROGRAM=BeamAdjust 1.2
		MEAS_DATE=07-Oct-2010 14:27:47
		LINAC=A4
		MODALITY=X
		INPLANE_AXIS_DIR=TARGET_GUN
		CROSSPLANE_AXIS_DIR=LEFT_RIGHT
		DEPTH_AXIS_DIR=UP_DOWN
		ENERGY=6.00
		SSD=950.00
		WEDGE=None
		FIELD_INPLANE=100.00
		FIELD_CROSSPLANE=100.00
		FIELD_TYPE=RECTANGULAR
		GANTRY=0.00
		GANTRY_UPRIGHT_POSITION=0
		GANTRY_ROTATION=CW
		COLL_ANGLE=90.00
		COLL_OFFSET_INPLANE=0.00
		COLL_OFFSET_CROSSPLANE=0.00
		SCAN_DEVICE=STARCHECK
		ELECTROMETER=2D_ARRAY_INTERFACE
		DETECTOR=STARCHECK
		SCAN_CURVETYPE=INPLANE_PROFILE
		SCAN_DEPTH=0.00
		SCAN_OFFAXIS_CROSSPLANE=-100.00
		SCAN_ANGLE=0.00
		SCAN_DIAGONAL=NOT_DIAGONAL
		MEAS_PRESET=TIME_PRESET
		MEAS_TIME=10.000
		MEAS_UNIT=GY
		PRESSURE=1013.25
		TEMPERATURE=20.00
		NORM_TEMPERATURE=20.00
		CORRECTION_FACTOR=1.0000
		CORRECTIONS=AIR_DENSITY_CORR;
		BEGIN_DATA
			-60.00		7.8057E-03
			-30.00		10.105E-03
			30.00		10.335E-03
			60.00		8.1848E-03
		END_DATA
	END_SCAN  9
	BEGIN_SCAN  10
		TASK_NAME=MODE_INTERVAL
		PROGRAM=BeamAdjust 1.2
		MEAS_DATE=07-Oct-2010 14:27:47
		LINAC=A4
		MODALITY=X
		INPLANE_AXIS_DIR=TARGET_GUN
		CROSSPLANE_AXIS_DIR=LEFT_RIGHT
		DEPTH_AXIS_DIR=UP_DOWN
		ENERGY=6.00
		SSD=950.00
		WEDGE=None
		FIELD_INPLANE=100.00
		FIELD_CROSSPLANE=100.00
		FIELD_TYPE=RECTANGULAR
		GANTRY=0.00
		GANTRY_UPRIGHT_POSITION=0
		GANTRY_ROTATION=CW
		COLL_ANGLE=90.00
		COLL_OFFSET_INPLANE=0.00
		COLL_OFFSET_CROSSPLANE=0.00
		SCAN_DEVICE=STARCHECK
		ELECTROMETER=2D_ARRAY_INTERFACE
		DETECTOR=STARCHECK
		SCAN_CURVETYPE=INPLANE_PROFILE
		SCAN_DEPTH=0.00
		SCAN_OFFAXIS_CROSSPLANE=-50.00
		SCAN_ANGLE=0.00
		SCAN_DIAGONAL=NOT_DIAGONAL
		MEAS_PRESET=TIME_PRESET
		MEAS_TIME=10.000
		MEAS_UNIT=GY
		PRESSURE=1013.25
		TEMPERATURE=20.00
		NORM_TEMPERATURE=20.00
		CORRECTION_FACTOR=1.0000
		CORRECTIONS=AIR_DENSITY_CORR;
		BEGIN_DATA
			-30.00		391.86E-03
			-15.00		390.60E-03
			15.00		381.34E-03
			30.00		371.67E-03
		END_DATA
	END_SCAN  10
	BEGIN_SCAN  11
		TASK_NAME=MODE_INTERVAL
		PROGRAM=BeamAdjust 1.2
		MEAS_DATE=07-Oct-2010 14:27:47
		LINAC=A4
		MODALITY=X
		INPLANE_AXIS_DIR=TARGET_GUN
		CROSSPLANE_AXIS_DIR=LEFT_RIGHT
		DEPTH_AXIS_DIR=UP_DOWN
		ENERGY=6.00
		SSD=950.00
		WEDGE=None
		FIELD_INPLANE=100.00
		FIELD_CROSSPLANE=100.00
		FIELD_TYPE=RECTANGULAR
		GANTRY=0.00
		GANTRY_UPRIGHT_POSITION=0
		GANTRY_ROTATION=CW
		COLL_ANGLE=90.00
		COLL_OFFSET_INPLANE=0.00
		COLL_OFFSET_CROSSPLANE=0.00
		SCAN_DEVICE=STARCHECK
		ELECTROMETER=2D_ARRAY_INTERFACE
		DETECTOR=STARCHECK
		SCAN_CURVETYPE=INPLANE_PROFILE
		SCAN_DEPTH=0.00
		SCAN_OFFAXIS_CROSSPLANE=0.00
		SCAN_ANGLE=0.00
		SCAN_DIAGONAL=NOT_DIAGONAL
		MEAS_PRESET=TIME_PRESET
		MEAS_TIME=10.000
		MEAS_UNIT=GY
		PRESSURE=1013.25
		TEMPERATURE=20.00
		NORM_TEMPERATURE=20.00
		CORRECTION_FACTOR=1.0000
		CORRECTIONS=AIR_DENSITY_CORR;
		BEGIN_DATA
			-126.00		7.9843E-03
			-123.00		7.7786E-03
			-120.00		9.4091E-03
			-117.00		10.085E-03
			-114.00		10.537E-03
			-111.00		11.264E-03
			-108.00		12.190E-03
			-105.00		13.021E-03
			-102.00		14.228E-03
			-99.00		14.717E-03
			-96.00		17.084E-03
			-93.00		17.561E-03
			-90.00		19.543E-03
			-87.00		20.417E-03
			-84.00		22.085E-03
			-81.00		24.812E-03
			-78.00		26.543E-03
			-75.00		28.633E-03
			-72.00		31.319E-03
			-69.00		34.098E-03
			-66.00		37.997E-03
			-63.00		42.207E-03
			-60.00		47.730E-03
			-57.00		56.123E-03
			-54.00		68.673E-03
			-51.00		94.629E-03
			-48.00		175.46E-03
			-45.00		415.12E-03
			-42.00		594.90E-03
			-39.00		633.24E-03
			-36.00		647.96E-03
			-33.00		655.35E-03
			-30.00		661.31E-03
			-27.00		664.19E-03
			-24.00		664.61E-03
			-21.00		664.18E-03
			-18.00		669.64E-03
			-15.00		667.25E-03
			-12.00		670.75E-03
			-9.00		673.12E-03
			-6.00		670.59E-03
			0.00		669.30E-03
			6.00		671.56E-03
			9.00		670.88E-03
			12.00		671.57E-03
			15.00		672.32E-03
			18.00		667.89E-03
			21.00		666.56E-03
			24.00		662.57E-03
			27.00		664.66E-03
			30.00		661.07E-03
			33.00		660.55E-03
			36.00		660.34E-03
			39.00		653.17E-03
			42.00		648.69E-03
			45.00		641.91E-03
			48.00		619.74E-03
			51.00		563.28E-03
			54.00		325.05E-03
			57.00		141.59E-03
			60.00		84.247E-03
			63.00		62.952E-03
			66.00		52.755E-03
			69.00		45.799E-03
			72.00		40.771E-03
			75.00		36.196E-03
			78.00		32.230E-03
			81.00		30.094E-03
			84.00		27.146E-03
			87.00		25.133E-03
			90.00		22.852E-03
			93.00		21.254E-03
			96.00		19.314E-03
			99.00		18.210E-03
			102.00		16.144E-03
			105.00		14.705E-03
			108.00		14.561E-03
			111.00		13.126E-03
			114.00		12.289E-03
			117.00		11.291E-03
			120.00		10.685E-03
			123.00		9.9953E-03
			126.00		9.0367E-03
		END_DATA
	END_SCAN  11
	BEGIN_SCAN  12
		TASK_NAME=MODE_INTERVAL
		PROGRAM=BeamAdjust 1.2
		MEAS_DATE=07-Oct-2010 14:27:47
		LINAC=A4
		MODALITY=X
		INPLANE_AXIS_DIR=TARGET_GUN
		CROSSPLANE_AXIS_DIR=LEFT_RIGHT
		DEPTH_AXIS_DIR=UP_DOWN
		ENERGY=6.00
		SSD=950.00
		WEDGE=None
		FIELD_INPLANE=100.00
		FIELD_CROSSPLANE=100.00
		FIELD_TYPE=RECTANGULAR
		GANTRY=0.00
		GANTRY_UPRIGHT_POSITION=0
		GANTRY_ROTATION=CW
		COLL_ANGLE=90.00
		COLL_OFFSET_INPLANE=0.00
		COLL_OFFSET_CROSSPLANE=0.00
		SCAN_DEVICE=STARCHECK
		ELECTROMETER=2D_ARRAY_INTERFACE
		DETECTOR=STARCHECK
		SCAN_CURVETYPE=INPLANE_PROFILE
		SCAN_DEPTH=0.00
		SCAN_OFFAXIS_CROSSPLANE=50.00
		SCAN_ANGLE=0.00
		SCAN_DIAGONAL=NOT_DIAGONAL
		MEAS_PRESET=TIME_PRESET
		MEAS_TIME=10.000
		MEAS_UNIT=GY
		PRESSURE=1013.25
		TEMPERATURE=20.00
		NORM_TEMPERATURE=20.00
		CORRECTION_FACTOR=1.0000
		CORRECTIONS=AIR_DENSITY_CORR;
		BEGIN_DATA
			-30.00		327.64E-03
			-15.00		338.35E-03
			15.00		348.04E-03
			30.00		350.20E-03
		END_DATA
	END_SCAN  12
	BEGIN_SCAN  13
		TASK_NAME=MODE_INTERVAL
		PROGRAM=BeamAdjust 1.2
		MEAS_DATE=07-Oct-2010 14:27:47
		LINAC=A4
		MODALITY=X
		INPLANE_AXIS_DIR=TARGET_GUN
		CROSSPLANE_AXIS_DIR=LEFT_RIGHT
		DEPTH_AXIS_DIR=UP_DOWN
		ENERGY=6.00
		SSD=950.00
		WEDGE=None
		FIELD_INPLANE=100.00
		FIELD_CROSSPLANE=100.00
		FIELD_TYPE=RECTANGULAR
		GANTRY=0.00
		GANTRY_UPRIGHT_POSITION=0
		GANTRY_ROTATION=CW
		COLL_ANGLE=90.00
		COLL_OFFSET_INPLANE=0.00
		COLL_OFFSET_CROSSPLANE=0.00
		SCAN_DEVICE=STARCHECK
		ELECTROMETER=2D_ARRAY_INTERFACE
		DETECTOR=STARCHECK
		SCAN_CURVETYPE=INPLANE_PROFILE
		SCAN_DEPTH=0.00
		SCAN_OFFAXIS_CROSSPLANE=100.00
		SCAN_ANGLE=0.00
		SCAN_DIAGONAL=NOT_DIAGONAL
		MEAS_PRESET=TIME_PRESET
		MEAS_TIME=10.000
		MEAS_UNIT=GY
		PRESSURE=1013.25
		TEMPERATURE=20.00
		NORM_TEMPERATURE=20.00
		CORRECTION_FACTOR=1.0000
		CORRECTIONS=AIR_DENSITY_CORR;
		BEGIN_DATA
			-60.00		7.5799E-03
			-30.00		9.8092E-03
			30.00		10.800E-03
			60.00		7.6027E-03
		END_DATA
	END_SCAN  13
	BEGIN_SCAN  14
		TASK_NAME=MODE_INTERVAL
		PROGRAM=BeamAdjust 1.2
		MEAS_DATE=07-Oct-2010 14:27:47
		LINAC=A4
		MODALITY=X
		INPLANE_AXIS_DIR=TARGET_GUN
		CROSSPLANE_AXIS_DIR=LEFT_RIGHT
		DEPTH_AXIS_DIR=UP_DOWN
		ENERGY=6.00
		SSD=950.00
		WEDGE=None
		FIELD_INPLANE=100.00
		FIELD_CROSSPLANE=100.00
		FIELD_TYPE=RECTANGULAR
		GANTRY=0.00
		GANTRY_UPRIGHT_POSITION=0
		GANTRY_ROTATION=CW
		COLL_ANGLE=90.00
		COLL_OFFSET_INPLANE=0.00
		COLL_OFFSET_CROSSPLANE=0.00
		SCAN_DEVICE=STARCHECK
		ELECTROMETER=2D_ARRAY_INTERFACE
		DETECTOR=STARCHECK
		SCAN_CURVETYPE=INPLANE_PROFILE
		SCAN_DEPTH=0.00
		SCAN_OFFAXIS_CROSSPLANE=130.00
		SCAN_ANGLE=0.00
		SCAN_DIAGONAL=NOT_DIAGONAL
		MEAS_PRESET=TIME_PRESET
		MEAS_TIME=10.000
		MEAS_UNIT=GY
		PRESSURE=1013.25
		TEMPERATURE=20.00
		NORM_TEMPERATURE=20.00
		CORRECTION_FACTOR=1.0000
		CORRECTIONS=AIR_DENSITY_CORR;
		BEGIN_DATA
			-130.00		1.7010E-03
			-125.00		2.4543E-03
			-120.00		1.8745E-03
			-115.00		2.5774E-03
			-110.00		2.2992E-03
			-105.00		2.5332E-03
			-100.00		2.8767E-03
			-95.00		3.1740E-03
			-90.00		2.2778E-03
			-85.00		3.5468E-03
			-80.00		3.3642E-03
			-75.00		3.3824E-03
			-70.00		3.7731E-03
			-65.00		3.4521E-03
			-60.00		4.6255E-03
			-55.00		3.9738E-03
			-50.00		4.1866E-03
			-45.00		4.5275E-03
			-40.00		4.8211E-03
			-35.00		5.0037E-03
			-30.00		4.8806E-03
			-25.00		5.3098E-03
			-20.00		5.0236E-03
			-15.00		5.2911E-03
			-10.00		4.3108E-03
			-5.00		5.5245E-03
			0.00		5.6643E-03
			5.00		5.9219E-03
			10.00		5.7562E-03
			15.00		5.0290E-03
			20.00		5.2121E-03
			25.00		5.3946E-03
			30.00		5.0563E-03
			35.00		5.2361E-03
			40.00		5.6637E-03
			45.00		5.6543E-03
			50.00		5.0389E-03
			55.00		5.2676E-03
			60.00		4.6533E-03
			65.00		4.3328E-03
			70.00		4.2025E-03
			75.00		4.4577E-03
			80.00		4.1024E-03
			85.00		3.9945E-03
			90.00		3.4710E-03
			95.00		3.6294E-03
			100.00		3.5467E-03
			105.00		3.0927E-03
			110.00		2.9413E-03
			115.00		3.1925E-03
			120.00		3.0781E-03
			125.00		2.2491E-03
			130.00		2.5058E-03
		END_DATA
	END_SCAN  14
	BEGIN_SCAN  15
		TASK_NAME=MODE_INTERVAL
		PROGRAM=BeamAdjust 1.2
		MEAS_DATE=07-Oct-2010 14:27:47
		LINAC=A4
		MODALITY=X
		INPLANE_AXIS_DIR=TARGET_GUN
		CROSSPLANE_AXIS_DIR=LEFT_RIGHT
		DEPTH_AXIS_DIR=UP_DOWN
		ENERGY=6.00
		SSD=950.00
		WEDGE=None
		FIELD_INPLANE=100.00
		FIELD_CROSSPLANE=100.00
		FIELD_TYPE=RECTANGULAR
		GANTRY=0.00
		GANTRY_UPRIGHT_POSITION=0
		GANTRY_ROTATION=CW
		COLL_ANGLE=90.00
		COLL_OFFSET_INPLANE=0.00
		COLL_OFFSET_CROSSPLANE=0.00
		SCAN_DEVICE=STARCHECK
		ELECTROMETER=2D_ARRAY_INTERFACE
		DETECTOR=STARCHECK
		SCAN_CURVETYPE=INPLANE_PROFILE
		SCAN_DEPTH=0.00
		SCAN_OFFAXIS_CROSSPLANE=0.00
		SCAN_ANGLE=0.00
		SCAN_DIAGONAL=FIRST_DIAGONAL
		MEAS_PRESET=TIME_PRESET
		MEAS_TIME=10.000
		MEAS_UNIT=GY
		PRESSURE=1013.25
		TEMPERATURE=20.00
		NORM_TEMPERATURE=20.00
		CORRECTION_FACTOR=1.0000
		CORRECTIONS=AIR_DENSITY_CORR;
		BEGIN_DATA
			-172.40		2.4283E-03
			-169.40		2.5654E-03
			-166.40		3.7707E-03
			-163.40		3.5075E-03
			-160.40		3.3657E-03
			-157.40		3.9783E-03
			-154.40		3.3800E-03
			-151.40		3.6273E-03
			-148.40		4.3089E-03
			-145.40		5.0125E-03
			-142.40		5.1566E-03
			-139.40		6.0916E-03
			-136.40		5.5374E-03
			-133.40		6.7610E-03
			-130.40		6.4262E-03
			-127.40		7.2636E-03
			-124.40		7.4479E-03
			-121.40		8.1364E-03
			-118.40		9.2250E-03
			-115.40		9.9814E-03
			-112.40		10.212E-03
			-109.40		11.839E-03
			-106.40		12.226E-03
			-103.40		13.240E-03
			-100.40		14.428E-03
			-97.40		16.695E-03
			-94.40		18.236E-03
			-91.40		19.858E-03
			-88.40		22.287E-03
			-85.40		24.879E-03
			-82.40		27.751E-03
			-79.40		31.958E-03
			-76.40		37.387E-03
			-73.40		49.019E-03
			-70.40		77.209E-03
			-67.40		170.76E-03
			-64.40		336.54E-03
			-61.40		486.86E-03
			-58.40		577.31E-03
			-55.40		616.62E-03
			-52.40		633.26E-03
			-49.40		642.24E-03
			-46.40		647.64E-03
			-43.40		650.70E-03
			-40.40		654.86E-03
			-37.40		659.90E-03
			-34.40		660.29E-03
			-31.40		662.80E-03
			-28.40		661.81E-03
			-25.40		664.69E-03
			-22.40		664.82E-03
			-19.40		664.37E-03
			-16.40		667.56E-03
			-13.40		671.89E-03
			0.00		669.30E-03
			13.40		674.20E-03
			16.40		670.41E-03
			19.40		669.33E-03
			22.40		667.93E-03
			25.40		666.89E-03
			28.40		665.85E-03
			31.40		663.89E-03
			34.40		660.93E-03
			37.40		664.06E-03
			40.40		661.68E-03
			43.40		658.86E-03
			46.40		657.40E-03
			49.40		652.77E-03
			52.40		650.31E-03
			55.40		639.77E-03
			58.40		631.82E-03
			61.40		615.34E-03
			64.40		576.05E-03
			67.40		479.47E-03
			70.40		306.12E-03
			73.40		133.39E-03
			76.40		63.590E-03
			79.40		43.621E-03
			82.40		34.924E-03
			85.40		29.207E-03
			88.40		26.369E-03
			91.40		23.147E-03
			94.40		20.559E-03
			97.40		18.631E-03
			100.40		16.517E-03
			103.40		15.545E-03
			106.40		14.043E-03
			109.40		12.752E-03
			112.40		11.019E-03
			115.40		10.618E-03
			118.40		9.2286E-03
			121.40		8.6711E-03
			124.40		8.1138E-03
			127.40		7.8955E-03
			130.40		7.4256E-03
			133.40		6.7099E-03
			136.40		5.4666E-03
			139.40		5.1180E-03
			142.40		4.4636E-03
			145.40		4.6688E-03
			148.40		4.5053E-03
			151.40		3.6386E-03
			154.40		3.8407E-03
			157.40		3.3945E-03
			160.40		2.2798E-03
			163.40		2.5604E-03
			166.40		2.5940E-03
			169.40		2.6280E-03
			172.40		2.1728E-03
		END_DATA
	END_SCAN  15
	BEGIN_SCAN  16
		TASK_NAME=MODE_INTERVAL
		PROGRAM=BeamAdjust 1.2
		MEAS_DATE=07-Oct-2010 14:27:47
		LINAC=A4
		MODALITY=X
		INPLANE_AXIS_DIR=GUN_TARGET
		CROSSPLANE_AXIS_DIR=LEFT_RIGHT
		DEPTH_AXIS_DIR=UP_DOWN
		ENERGY=6.00
		SSD=950.00
		WEDGE=None
		FIELD_INPLANE=100.00
		FIELD_CROSSPLANE=100.00
		FIELD_TYPE=RECTANGULAR
		GANTRY=0.00
		GANTRY_UPRIGHT_POSITION=0
		GANTRY_ROTATION=CW
		COLL_ANGLE=90.00
		COLL_OFFSET_INPLANE=0.00
		COLL_OFFSET_CROSSPLANE=0.00
		SCAN_DEVICE=STARCHECK
		ELECTROMETER=2D_ARRAY_INTERFACE
		DETECTOR=STARCHECK
		SCAN_CURVETYPE=INPLANE_PROFILE
		SCAN_DEPTH=0.00
		SCAN_OFFAXIS_CROSSPLANE=0.00
		SCAN_ANGLE=0.00
		SCAN_DIAGONAL=SECOND_DIAGONAL
		MEAS_PRESET=TIME_PRESET
		MEAS_TIME=10.000
		MEAS_UNIT=GY
		PRESSURE=1013.25
		TEMPERATURE=20.00
		NORM_TEMPERATURE=20.00
		CORRECTION_FACTOR=1.0000
		CORRECTIONS=AIR_DENSITY_CORR;
		BEGIN_DATA
			-172.40		2.3239E-03
			-169.40		2.7169E-03
			-166.40		2.7833E-03
			-163.40		2.8753E-03
			-160.40		2.7349E-03
			-157.40		3.2098E-03
			-154.40		3.5481E-03
			-151.40		3.8126E-03
			-148.40		3.8717E-03
			-145.40		4.2240E-03
			-142.40		4.6265E-03
			-139.40		4.7636E-03
			-136.40		5.4012E-03
			-133.40		5.9410E-03
			-130.40		6.6683E-03
			-127.40		6.7754E-03
			-124.40		8.7916E-03
			-121.40		8.0556E-03
			-118.40		8.8875E-03
			-115.40		9.4380E-03
			-112.40		9.9940E-03
			-109.40		11.030E-03
			-106.40		12.486E-03
			-103.40		13.002E-03
			-100.40		14.965E-03
			-97.40		15.925E-03
			-94.40		17.387E-03
			-91.40		19.542E-03
			-88.40		20.882E-03
			-85.40		23.693E-03
			-82.40		27.286E-03
			-79.40		30.556E-03
			-76.40		36.693E-03
			-73.40		46.058E-03
			-70.40		69.100E-03
			-67.40		146.34E-03
			-64.40		317.08E-03
			-61.40		479.15E-03
			-58.40		578.87E-03
			-55.40		617.73E-03
			-52.40		638.64E-03
			-49.40		647.38E-03
			-46.40		652.81E-03
			-43.40		657.11E-03
			-40.40		659.32E-03
			-37.40		663.58E-03
			-34.40		663.24E-03
			-31.40		665.24E-03
			-28.40		667.77E-03
			-25.40		667.12E-03
			-22.40		665.39E-03
			-19.40		668.69E-03
			-16.40		669.40E-03
			-13.40		672.68E-03
			0.00		669.30E-03
			13.40		672.63E-03
			16.40		670.86E-03
			19.40		667.18E-03
			22.40		663.86E-03
			25.40		663.56E-03
			28.40		662.49E-03
			31.40		661.20E-03
			34.40		658.51E-03
			37.40		657.85E-03
			40.40		657.51E-03
			43.40		655.43E-03
			46.40		654.15E-03
			49.40		650.79E-03
			52.40		643.78E-03
			55.40		637.36E-03
			58.40		631.22E-03
			61.40		614.11E-03
			64.40		579.82E-03
			67.40		487.05E-03
			70.40		321.42E-03
			73.40		142.41E-03
			76.40		65.669E-03
			79.40		44.415E-03
			82.40		35.739E-03
			85.40		30.428E-03
			88.40		26.436E-03
			91.40		23.907E-03
			94.40		21.155E-03
			97.40		19.481E-03
			100.40		16.277E-03
			103.40		15.379E-03
			106.40		14.857E-03
			109.40		12.695E-03
			112.40		12.220E-03
			115.40		10.385E-03
			118.40		10.147E-03
			121.40		9.0564E-03
			124.40		7.9778E-03
			127.40		7.7125E-03
			130.40		7.4368E-03
			133.40		6.7954E-03
			136.40		5.8331E-03
			139.40		6.1616E-03
			142.40		5.8163E-03
			145.40		5.6039E-03
			148.40		4.9117E-03
			151.40		4.5258E-03
			154.40		3.8142E-03
			157.40		4.2394E-03
			160.40		3.5662E-03
			163.40		3.7427E-03
			166.40		3.6942E-03
			169.40		2.6491E-03
			172.40		2.5064E-03
		END_DATA
	END_SCAN  16
END_SCAN_DATA
