BEGIN_SCAN_DATA
	FORMAT=CC-Export V1.9                  
	FILE_CREATION_DATE=07-Oct-2010 14:28:16
	LAST_MODIFIED=07-Oct-2010 14:28:16
	BEGIN_SCAN  1
		TASK_NAME=MODE_INTERVAL
		PROGRAM=BeamAdjust 1.2
		MEAS_DATE=07-Oct-2010 14:28:16
		LINAC=A4
		MODALITY=X
		INPLANE_AXIS_DIR=TARGET_GUN
		CROSSPLANE_AXIS_DIR=LEFT_RIGHT
		DEPTH_AXIS_DIR=UP_DOWN
		ENERGY=6.00
		SSD=950.00
		WEDGE=None
		FIELD_INPLANE=100.00
		FIELD_CROSSPLANE=100.00
		FIELD_TYPE=RECTANGULAR
		GANTRY=0.00
		GANTRY_UPRIGHT_POSITION=0
		GANTRY_ROTATION=CW
		COLL_ANGLE=90.00
		COLL_OFFSET_INPLANE=0.00
		COLL_OFFSET_CROSSPLANE=0.00
		SCAN_DEVICE=STARCHECK
		ELECTROMETER=2D_ARRAY_INTERFACE
		DETECTOR=STARCHECK
		SCAN_CURVETYPE=CROSSPLANE_PROFILE
		SCAN_DEPTH=0.00
		SCAN_OFFAXIS_INPLANE=-130.00
		SCAN_ANGLE=0.00
		SCAN_DIAGONAL=NOT_DIAGONAL
		MEAS_PRESET=TIME_PRESET
		MEAS_TIME=10.000
		MEAS_UNIT=GY
		PRESSURE=1013.25
		TEMPERATURE=20.00
		NORM_TEMPERATURE=20.00
		CORRECTION_FACTOR=1.0000
		CORRECTIONS=AIR_DENSITY_CORR;
		BEGIN_DATA
			-130.00		2.5906E-03
			-80.00		3.5770E-03
			-40.00		6.5084E-03
			40.00		6.2819E-03
			80.00		3.1718E-03
			130.00		1.7190E-03
		END_DATA
	END_SCAN  1
	BEGIN_SCAN  2
		TASK_NAME=MODE_INTERVAL
		PROGRAM=BeamAdjust 1.2
		MEAS_DATE=07-Oct-2010 14:28:16
		LINAC=A4
		MODALITY=X
		INPLANE_AXIS_DIR=TARGET_GUN
		CROSSPLANE_AXIS_DIR=LEFT_RIGHT
		DEPTH_AXIS_DIR=UP_DOWN
		ENERGY=6.00
		SSD=950.00
		WEDGE=None
		FIELD_INPLANE=100.00
		FIELD_CROSSPLANE=100.00
		FIELD_TYPE=RECTANGULAR
		GANTRY=0.00
		GANTRY_UPRIGHT_POSITION=0
		GANTRY_ROTATION=CW
		COLL_ANGLE=90.00
		COLL_OFFSET_INPLANE=0.00
		COLL_OFFSET_CROSSPLANE=0.00
		SCAN_DEVICE=STARCHECK
		ELECTROMETER=2D_ARRAY_INTERFACE
		DETECTOR=STARCHECK
		SCAN_CURVETYPE=CROSSPLANE_PROFILE
		SCAN_DEPTH=0.00
		SCAN_OFFAXIS_INPLANE=-100.00
		SCAN_ANGLE=0.00
		SCAN_DIAGONAL=NOT_DIAGONAL
		MEAS_PRESET=TIME_PRESET
		MEAS_TIME=10.000
		MEAS_UNIT=GY
		PRESSURE=1013.25
		TEMPERATURE=20.00
		NORM_TEMPERATURE=20.00
		CORRECTION_FACTOR=1.0000
		CORRECTIONS=AIR_DENSITY_CORR;
		BEGIN_DATA
			-60.00		9.7249E-03
			-30.00		12.724E-03
			30.00		13.206E-03
			60.00		9.0123E-03
		END_DATA
	END_SCAN  2
	BEGIN_SCAN  3
		TASK_NAME=MODE_INTERVAL
		PROGRAM=BeamAdjust 1.2
		MEAS_DATE=07-Oct-2010 14:28:16
		LINAC=A4
		MODALITY=X
		INPLANE_AXIS_DIR=TARGET_GUN
		CROSSPLANE_AXIS_DIR=LEFT_RIGHT
		DEPTH_AXIS_DIR=UP_DOWN
		ENERGY=6.00
		SSD=950.00
		WEDGE=None
		FIELD_INPLANE=100.00
		FIELD_CROSSPLANE=100.00
		FIELD_TYPE=RECTANGULAR
		GANTRY=0.00
		GANTRY_UPRIGHT_POSITION=0
		GANTRY_ROTATION=CW
		COLL_ANGLE=90.00
		COLL_OFFSET_INPLANE=0.00
		COLL_OFFSET_CROSSPLANE=0.00
		SCAN_DEVICE=STARCHECK
		ELECTROMETER=2D_ARRAY_INTERFACE
		DETECTOR=STARCHECK
		SCAN_CURVETYPE=CROSSPLANE_PROFILE
		SCAN_DEPTH=0.00
		SCAN_OFFAXIS_INPLANE=-50.00
		SCAN_ANGLE=0.00
		SCAN_DIAGONAL=NOT_DIAGONAL
		MEAS_PRESET=TIME_PRESET
		MEAS_TIME=10.000
		MEAS_UNIT=GY
		PRESSURE=1013.25
		TEMPERATURE=20.00
		NORM_TEMPERATURE=20.00
		CORRECTION_FACTOR=1.0000
		CORRECTIONS=AIR_DENSITY_CORR;
		BEGIN_DATA
			-30.00		94.021E-03
			-15.00		90.350E-03
			15.00		93.733E-03
			30.00		93.857E-03
		END_DATA
	END_SCAN  3
	BEGIN_SCAN  4
		TASK_NAME=MODE_INTERVAL
		PROGRAM=BeamAdjust 1.2
		MEAS_DATE=07-Oct-2010 14:28:16
		LINAC=A4
		MODALITY=X
		INPLANE_AXIS_DIR=TARGET_GUN
		CROSSPLANE_AXIS_DIR=LEFT_RIGHT
		DEPTH_AXIS_DIR=UP_DOWN
		ENERGY=6.00
		SSD=950.00
		WEDGE=None
		FIELD_INPLANE=100.00
		FIELD_CROSSPLANE=100.00
		FIELD_TYPE=RECTANGULAR
		GANTRY=0.00
		GANTRY_UPRIGHT_POSITION=0
		GANTRY_ROTATION=CW
		COLL_ANGLE=90.00
		COLL_OFFSET_INPLANE=0.00
		COLL_OFFSET_CROSSPLANE=0.00
		SCAN_DEVICE=STARCHECK
		ELECTROMETER=2D_ARRAY_INTERFACE
		DETECTOR=STARCHECK
		SCAN_CURVETYPE=CROSSPLANE_PROFILE
		SCAN_DEPTH=0.00
		SCAN_OFFAXIS_INPLANE=0.00
		SCAN_ANGLE=0.00
		SCAN_DIAGONAL=NOT_DIAGONAL
		MEAS_PRESET=TIME_PRESET
		MEAS_TIME=10.000
		MEAS_UNIT=GY
		PRESSURE=1013.25
		TEMPERATURE=20.00
		NORM_TEMPERATURE=20.00
		CORRECTION_FACTOR=1.0000
		CORRECTIONS=AIR_DENSITY_CORR;
		BEGIN_DATA
			-126.00		6.2499E-03
			-123.00		7.0948E-03
			-120.00		7.4453E-03
			-117.00		8.4770E-03
			-114.00		8.4445E-03
			-111.00		9.3526E-03
			-108.00		10.103E-03
			-105.00		10.464E-03
			-102.00		11.738E-03
			-99.00		12.417E-03
			-96.00		13.548E-03
			-93.00		15.200E-03
			-90.00		16.303E-03
			-87.00		17.685E-03
			-84.00		20.170E-03
			-81.00		21.868E-03
			-78.00		23.287E-03
			-75.00		26.742E-03
			-72.00		29.283E-03
			-69.00		33.885E-03
			-66.00		39.057E-03
			-63.00		44.523E-03
			-60.00		54.677E-03
			-57.00		72.087E-03
			-54.00		113.41E-03
			-51.00		287.41E-03
			-48.00		553.72E-03
			-45.00		616.68E-03
			-42.00		636.59E-03
			-39.00		649.58E-03
			-36.00		654.98E-03
			-33.00		655.65E-03
			-30.00		657.50E-03
			-27.00		660.23E-03
			-24.00		662.63E-03
			-21.00		662.41E-03
			-18.00		669.01E-03
			-15.00		669.14E-03
			-12.00		668.83E-03
			-9.00		671.08E-03
			-6.00		669.81E-03
			0.00		668.39E-03
			6.00		672.05E-03
			9.00		671.08E-03
			12.00		668.92E-03
			15.00		667.84E-03
			18.00		667.26E-03
			21.00		665.39E-03
			24.00		661.93E-03
			27.00		665.72E-03
			30.00		663.72E-03
			33.00		661.90E-03
			36.00		658.30E-03
			39.00		652.49E-03
			42.00		640.94E-03
			45.00		616.09E-03
			48.00		529.01E-03
			51.00		235.86E-03
			54.00		102.68E-03
			57.00		68.169E-03
			60.00		52.819E-03
			63.00		44.108E-03
			66.00		37.650E-03
			69.00		32.812E-03
			72.00		29.019E-03
			75.00		26.261E-03
			78.00		23.528E-03
			81.00		21.767E-03
			84.00		19.330E-03
			87.00		17.250E-03
			90.00		16.671E-03
			93.00		14.599E-03
			96.00		13.404E-03
			99.00		12.460E-03
			102.00		11.440E-03
			105.00		10.661E-03
			108.00		10.183E-03
			111.00		8.8480E-03
			114.00		8.4001E-03
			117.00		7.8424E-03
			120.00		6.8985E-03
			123.00		7.3503E-03
			126.00		6.7157E-03
		END_DATA
	END_SCAN  4
	BEGIN_SCAN  5
		TASK_NAME=MODE_INTERVAL
		PROGRAM=BeamAdjust 1.2
		MEAS_DATE=07-Oct-2010 14:28:16
		LINAC=A4
		MODALITY=X
		INPLANE_AXIS_DIR=TARGET_GUN
		CROSSPLANE_AXIS_DIR=LEFT_RIGHT
		DEPTH_AXIS_DIR=UP_DOWN
		ENERGY=6.00
		SSD=950.00
		WEDGE=None
		FIELD_INPLANE=100.00
		FIELD_CROSSPLANE=100.00
		FIELD_TYPE=RECTANGULAR
		GANTRY=0.00
		GANTRY_UPRIGHT_POSITION=0
		GANTRY_ROTATION=CW
		COLL_ANGLE=90.00
		COLL_OFFSET_INPLANE=0.00
		COLL_OFFSET_CROSSPLANE=0.00
		SCAN_DEVICE=STARCHECK
		ELECTROMETER=2D_ARRAY_INTERFACE
		DETECTOR=STARCHECK
		SCAN_CURVETYPE=CROSSPLANE_PROFILE
		SCAN_DEPTH=0.00
		SCAN_OFFAXIS_INPLANE=50.00
		SCAN_ANGLE=0.00
		SCAN_DIAGONAL=NOT_DIAGONAL
		MEAS_PRESET=TIME_PRESET
		MEAS_TIME=10.000
		MEAS_UNIT=GY
		PRESSURE=1013.25
		TEMPERATURE=20.00
		NORM_TEMPERATURE=20.00
		CORRECTION_FACTOR=1.0000
		CORRECTIONS=AIR_DENSITY_CORR;
		BEGIN_DATA
			-30.00		602.82E-03
			-15.00		610.98E-03
			15.00		604.16E-03
			30.00		601.28E-03
		END_DATA
	END_SCAN  5
	BEGIN_SCAN  6
		TASK_NAME=MODE_INTERVAL
		PROGRAM=BeamAdjust 1.2
		MEAS_DATE=07-Oct-2010 14:28:16
		LINAC=A4
		MODALITY=X
		INPLANE_AXIS_DIR=TARGET_GUN
		CROSSPLANE_AXIS_DIR=LEFT_RIGHT
		DEPTH_AXIS_DIR=UP_DOWN
		ENERGY=6.00
		SSD=950.00
		WEDGE=None
		FIELD_INPLANE=100.00
		FIELD_CROSSPLANE=100.00
		FIELD_TYPE=RECTANGULAR
		GANTRY=0.00
		GANTRY_UPRIGHT_POSITION=0
		GANTRY_ROTATION=CW
		COLL_ANGLE=90.00
		COLL_OFFSET_INPLANE=0.00
		COLL_OFFSET_CROSSPLANE=0.00
		SCAN_DEVICE=STARCHECK
		ELECTROMETER=2D_ARRAY_INTERFACE
		DETECTOR=STARCHECK
		SCAN_CURVETYPE=CROSSPLANE_PROFILE
		SCAN_DEPTH=0.00
		SCAN_OFFAXIS_INPLANE=100.00
		SCAN_ANGLE=0.00
		SCAN_DIAGONAL=NOT_DIAGONAL
		MEAS_PRESET=TIME_PRESET
		MEAS_TIME=10.000
		MEAS_UNIT=GY
		PRESSURE=1013.25
		TEMPERATURE=20.00
		NORM_TEMPERATURE=20.00
		CORRECTION_FACTOR=1.0000
		CORRECTIONS=AIR_DENSITY_CORR;
		BEGIN_DATA
			-60.00		11.140E-03
			-30.00		16.542E-03
			30.00		16.901E-03
			60.00		9.9091E-03
		END_DATA
	END_SCAN  6
	BEGIN_SCAN  7
		TASK_NAME=MODE_INTERVAL
		PROGRAM=BeamAdjust 1.2
		MEAS_DATE=07-Oct-2010 14:28:16
		LINAC=A4
		MODALITY=X
		INPLANE_AXIS_DIR=TARGET_GUN
		CROSSPLANE_AXIS_DIR=LEFT_RIGHT
		DEPTH_AXIS_DIR=UP_DOWN
		ENERGY=6.00
		SSD=950.00
		WEDGE=None
		FIELD_INPLANE=100.00
		FIELD_CROSSPLANE=100.00
		FIELD_TYPE=RECTANGULAR
		GANTRY=0.00
		GANTRY_UPRIGHT_POSITION=0
		GANTRY_ROTATION=CW
		COLL_ANGLE=90.00
		COLL_OFFSET_INPLANE=0.00
		COLL_OFFSET_CROSSPLANE=0.00
		SCAN_DEVICE=STARCHECK
		ELECTROMETER=2D_ARRAY_INTERFACE
		DETECTOR=STARCHECK
		SCAN_CURVETYPE=CROSSPLANE_PROFILE
		SCAN_DEPTH=0.00
		SCAN_OFFAXIS_INPLANE=130.00
		SCAN_ANGLE=0.00
		SCAN_DIAGONAL=NOT_DIAGONAL
		MEAS_PRESET=TIME_PRESET
		MEAS_TIME=10.000
		MEAS_UNIT=GY
		PRESSURE=1013.25
		TEMPERATURE=20.00
		NORM_TEMPERATURE=20.00
		CORRECTION_FACTOR=1.0000
		CORRECTIONS=AIR_DENSITY_CORR;
		BEGIN_DATA
			-130.00		2.0255E-03
			-80.00		4.4021E-03
			-40.00		7.9017E-03
			40.00		7.8299E-03
			80.00		4.3973E-03
			130.00		2.2870E-03
		END_DATA
	END_SCAN  7
	BEGIN_SCAN  8
		TASK_NAME=MODE_INTERVAL
		PROGRAM=BeamAdjust 1.2
		MEAS_DATE=07-Oct-2010 14:28:16
		LINAC=A4
		MODALITY=X
		INPLANE_AXIS_DIR=TARGET_GUN
		CROSSPLANE_AXIS_DIR=LEFT_RIGHT
		DEPTH_AXIS_DIR=UP_DOWN
		ENERGY=6.00
		SSD=950.00
		WEDGE=None
		FIELD_INPLANE=100.00
		FIELD_CROSSPLANE=100.00
		FIELD_TYPE=RECTANGULAR
		GANTRY=0.00
		GANTRY_UPRIGHT_POSITION=0
		GANTRY_ROTATION=CW
		COLL_ANGLE=90.00
		COLL_OFFSET_INPLANE=0.00
		COLL_OFFSET_CROSSPLANE=0.00
		SCAN_DEVICE=STARCHECK
		ELECTROMETER=2D_ARRAY_INTERFACE
		DETECTOR=STARCHECK
		SCAN_CURVETYPE=INPLANE_PROFILE
		SCAN_DEPTH=0.00
		SCAN_OFFAXIS_CROSSPLANE=-130.00
		SCAN_ANGLE=0.00
		SCAN_DIAGONAL=NOT_DIAGONAL
		MEAS_PRESET=TIME_PRESET
		MEAS_TIME=10.000
		MEAS_UNIT=GY
		PRESSURE=1013.25
		TEMPERATURE=20.00
		NORM_TEMPERATURE=20.00
		CORRECTION_FACTOR=1.0000
		CORRECTIONS=AIR_DENSITY_CORR;
		BEGIN_DATA
			-130.00		2.5906E-03
			-125.00		2.0994E-03
			-120.00		2.9659E-03
			-115.00		2.7742E-03
			-110.00		3.1480E-03
			-105.00		3.2391E-03
			-100.00		4.1268E-03
			-95.00		4.1539E-03
			-90.00		4.3935E-03
			-85.00		3.9626E-03
			-80.00		4.0235E-03
			-75.00		4.4650E-03
			-70.00		4.5190E-03
			-65.00		4.5685E-03
			-60.00		4.9466E-03
			-55.00		5.5135E-03
			-50.00		4.3797E-03
			-45.00		4.2173E-03
			-40.00		4.6848E-03
			-35.00		5.3153E-03
			-30.00		5.5604E-03
			-25.00		4.6196E-03
			-20.00		5.1921E-03
			-15.00		4.6851E-03
			-10.00		5.0649E-03
			-5.00		5.5913E-03
			0.00		5.6537E-03
			5.00		6.6301E-03
			10.00		5.8122E-03
			15.00		5.3431E-03
			20.00		5.9906E-03
			25.00		4.7382E-03
			30.00		5.5498E-03
			35.00		5.3332E-03
			40.00		5.1991E-03
			45.00		4.6879E-03
			50.00		5.1440E-03
			55.00		4.3472E-03
			60.00		4.6073E-03
			65.00		3.9957E-03
			70.00		3.9389E-03
			75.00		3.8083E-03
			80.00		3.5285E-03
			85.00		3.5030E-03
			90.00		3.5055E-03
			95.00		3.2129E-03
			100.00		3.1176E-03
			105.00		2.7282E-03
			110.00		2.6305E-03
			115.00		2.0796E-03
			120.00		2.6390E-03
			125.00		2.2305E-03
			130.00		2.0255E-03
		END_DATA
	END_SCAN  8
	BEGIN_SCAN  9
		TASK_NAME=MODE_INTERVAL
		PROGRAM=BeamAdjust 1.2
		MEAS_DATE=07-Oct-2010 14:28:16
		LINAC=A4
		MODALITY=X
		INPLANE_AXIS_DIR=TARGET_GUN
		CROSSPLANE_AXIS_DIR=LEFT_RIGHT
		DEPTH_AXIS_DIR=UP_DOWN
		ENERGY=6.00
		SSD=950.00
		WEDGE=None
		FIELD_INPLANE=100.00
		FIELD_CROSSPLANE=100.00
		FIELD_TYPE=RECTANGULAR
		GANTRY=0.00
		GANTRY_UPRIGHT_POSITION=0
		GANTRY_ROTATION=CW
		COLL_ANGLE=90.00
		COLL_OFFSET_INPLANE=0.00
		COLL_OFFSET_CROSSPLANE=0.00
		SCAN_DEVICE=STARCHECK
		ELECTROMETER=2D_ARRAY_INTERFACE
		DETECTOR=STARCHECK
		SCAN_CURVETYPE=INPLANE_PROFILE
		SCAN_DEPTH=0.00
		SCAN_OFFAXIS_CROSSPLANE=-100.00
		SCAN_ANGLE=0.00
		SCAN_DIAGONAL=NOT_DIAGONAL
		MEAS_PRESET=TIME_PRESET
		MEAS_TIME=10.000
		MEAS_UNIT=GY
		PRESSURE=1013.25
		TEMPERATURE=20.00
		NORM_TEMPERATURE=20.00
		CORRECTION_FACTOR=1.0000
		CORRECTIONS=AIR_DENSITY_CORR;
		BEGIN_DATA
			-60.00		7.8812E-03
			-30.00		9.9909E-03
			30.00		10.590E-03
			60.00		7.9438E-03
		END_DATA
	END_SCAN  9
	BEGIN_SCAN  10
		TASK_NAME=MODE_INTERVAL
		PROGRAM=BeamAdjust 1.2
		MEAS_DATE=07-Oct-2010 14:28:16
		LINAC=A4
		MODALITY=X
		INPLANE_AXIS_DIR=TARGET_GUN
		CROSSPLANE_AXIS_DIR=LEFT_RIGHT
		DEPTH_AXIS_DIR=UP_DOWN
		ENERGY=6.00
		SSD=950.00
		WEDGE=None
		FIELD_INPLANE=100.00
		FIELD_CROSSPLANE=100.00
		FIELD_TYPE=RECTANGULAR
		GANTRY=0.00
		GANTRY_UPRIGHT_POSITION=0
		GANTRY_ROTATION=CW
		COLL_ANGLE=90.00
		COLL_OFFSET_INPLANE=0.00
		COLL_OFFSET_CROSSPLANE=0.00
		SCAN_DEVICE=STARCHECK
		ELECTROMETER=2D_ARRAY_INTERFACE
		DETECTOR=STARCHECK
		SCAN_CURVETYPE=INPLANE_PROFILE
		SCAN_DEPTH=0.00
		SCAN_OFFAXIS_CROSSPLANE=-50.00
		SCAN_ANGLE=0.00
		SCAN_DIAGONAL=NOT_DIAGONAL
		MEAS_PRESET=TIME_PRESET
		MEAS_TIME=10.000
		MEAS_UNIT=GY
		PRESSURE=1013.25
		TEMPERATURE=20.00
		NORM_TEMPERATURE=20.00
		CORRECTION_FACTOR=1.0000
		CORRECTIONS=AIR_DENSITY_CORR;
		BEGIN_DATA
			-30.00		390.98E-03
			-15.00		390.56E-03
			15.00		381.02E-03
			30.00		371.93E-03
		END_DATA
	END_SCAN  10
	BEGIN_SCAN  11
		TASK_NAME=MODE_INTERVAL
		PROGRAM=BeamAdjust 1.2
		MEAS_DATE=07-Oct-2010 14:28:16
		LINAC=A4
		MODALITY=X
		INPLANE_AXIS_DIR=TARGET_GUN
		CROSSPLANE_AXIS_DIR=LEFT_RIGHT
		DEPTH_AXIS_DIR=UP_DOWN
		ENERGY=6.00
		SSD=950.00
		WEDGE=None
		FIELD_INPLANE=100.00
		FIELD_CROSSPLANE=100.00
		FIELD_TYPE=RECTANGULAR
		GANTRY=0.00
		GANTRY_UPRIGHT_POSITION=0
		GANTRY_ROTATION=CW
		COLL_ANGLE=90.00
		COLL_OFFSET_INPLANE=0.00
		COLL_OFFSET_CROSSPLANE=0.00
		SCAN_DEVICE=STARCHECK
		ELECTROMETER=2D_ARRAY_INTERFACE
		DETECTOR=STARCHECK
		SCAN_CURVETYPE=INPLANE_PROFILE
		SCAN_DEPTH=0.00
		SCAN_OFFAXIS_CROSSPLANE=0.00
		SCAN_ANGLE=0.00
		SCAN_DIAGONAL=NOT_DIAGONAL
		MEAS_PRESET=TIME_PRESET
		MEAS_TIME=10.000
		MEAS_UNIT=GY
		PRESSURE=1013.25
		TEMPERATURE=20.00
		NORM_TEMPERATURE=20.00
		CORRECTION_FACTOR=1.0000
		CORRECTIONS=AIR_DENSITY_CORR;
		BEGIN_DATA
			-126.00		8.5487E-03
			-123.00		7.8864E-03
			-120.00		9.2016E-03
			-117.00		10.507E-03
			-114.00		10.276E-03
			-111.00		11.367E-03
			-108.00		11.801E-03
			-105.00		12.811E-03
			-102.00		14.635E-03
			-99.00		14.561E-03
			-96.00		15.706E-03
			-93.00		18.597E-03
			-90.00		19.378E-03
			-87.00		20.165E-03
			-84.00		22.562E-03
			-81.00		24.322E-03
			-78.00		26.307E-03
			-75.00		28.734E-03
			-72.00		30.582E-03
			-69.00		34.088E-03
			-66.00		37.537E-03
			-63.00		41.594E-03
			-60.00		47.276E-03
			-57.00		55.199E-03
			-54.00		66.598E-03
			-51.00		91.129E-03
			-48.00		162.50E-03
			-45.00		387.15E-03
			-42.00		587.73E-03
			-39.00		631.18E-03
			-36.00		646.94E-03
			-33.00		655.06E-03
			-30.00		660.95E-03
			-27.00		664.39E-03
			-24.00		664.55E-03
			-21.00		663.94E-03
			-18.00		669.36E-03
			-15.00		667.00E-03
			-12.00		670.02E-03
			-9.00		672.82E-03
			-6.00		671.06E-03
			0.00		668.39E-03
			6.00		670.32E-03
			9.00		670.50E-03
			12.00		671.53E-03
			15.00		671.63E-03
			18.00		668.19E-03
			21.00		665.57E-03
			24.00		661.96E-03
			27.00		663.90E-03
			30.00		660.60E-03
			33.00		660.22E-03
			36.00		659.58E-03
			39.00		652.13E-03
			42.00		649.15E-03
			45.00		642.32E-03
			48.00		621.40E-03
			51.00		573.74E-03
			54.00		351.92E-03
			57.00		151.11E-03
			60.00		87.465E-03
			63.00		64.282E-03
			66.00		53.854E-03
			69.00		46.530E-03
			72.00		40.972E-03
			75.00		36.661E-03
			78.00		32.479E-03
			81.00		29.833E-03
			84.00		28.089E-03
			87.00		25.185E-03
			90.00		23.247E-03
			93.00		21.501E-03
			96.00		20.005E-03
			99.00		17.735E-03
			102.00		16.436E-03
			105.00		15.027E-03
			108.00		14.385E-03
			111.00		13.305E-03
			114.00		12.155E-03
			117.00		11.058E-03
			120.00		10.850E-03
			123.00		9.6755E-03
			126.00		9.1312E-03
		END_DATA
	END_SCAN  11
	BEGIN_SCAN  12
		TASK_NAME=MODE_INTERVAL
		PROGRAM=BeamAdjust 1.2
		MEAS_DATE=07-Oct-2010 14:28:16
		LINAC=A4
		MODALITY=X
		INPLANE_AXIS_DIR=TARGET_GUN
		CROSSPLANE_AXIS_DIR=LEFT_RIGHT
		DEPTH_AXIS_DIR=UP_DOWN
		ENERGY=6.00
		SSD=950.00
		WEDGE=None
		FIELD_INPLANE=100.00
		FIELD_CROSSPLANE=100.00
		FIELD_TYPE=RECTANGULAR
		GANTRY=0.00
		GANTRY_UPRIGHT_POSITION=0
		GANTRY_ROTATION=CW
		COLL_ANGLE=90.00
		COLL_OFFSET_INPLANE=0.00
		COLL_OFFSET_CROSSPLANE=0.00
		SCAN_DEVICE=STARCHECK
		ELECTROMETER=2D_ARRAY_INTERFACE
		DETECTOR=STARCHECK
		SCAN_CURVETYPE=INPLANE_PROFILE
		SCAN_DEPTH=0.00
		SCAN_OFFAXIS_CROSSPLANE=50.00
		SCAN_ANGLE=0.00
		SCAN_DIAGONAL=NOT_DIAGONAL
		MEAS_PRESET=TIME_PRESET
		MEAS_TIME=10.000
		MEAS_UNIT=GY
		PRESSURE=1013.25
		TEMPERATURE=20.00
		NORM_TEMPERATURE=20.00
		CORRECTION_FACTOR=1.0000
		CORRECTIONS=AIR_DENSITY_CORR;
		BEGIN_DATA
			-30.00		327.05E-03
			-15.00		338.78E-03
			15.00		347.87E-03
			30.00		350.44E-03
		END_DATA
	END_SCAN  12
	BEGIN_SCAN  13
		TASK_NAME=MODE_INTERVAL
		PROGRAM=BeamAdjust 1.2
		MEAS_DATE=07-Oct-2010 14:28:16
		LINAC=A4
		MODALITY=X
		INPLANE_AXIS_DIR=TARGET_GUN
		CROSSPLANE_AXIS_DIR=LEFT_RIGHT
		DEPTH_AXIS_DIR=UP_DOWN
		ENERGY=6.00
		SSD=950.00
		WEDGE=None
		FIELD_INPLANE=100.00
		FIELD_CROSSPLANE=100.00
		FIELD_TYPE=RECTANGULAR
		GANTRY=0.00
		GANTRY_UPRIGHT_POSITION=0
		GANTRY_ROTATION=CW
		COLL_ANGLE=90.00
		COLL_OFFSET_INPLANE=0.00
		COLL_OFFSET_CROSSPLANE=0.00
		SCAN_DEVICE=STARCHECK
		ELECTROMETER=2D_ARRAY_INTERFACE
		DETECTOR=STARCHECK
		SCAN_CURVETYPE=INPLANE_PROFILE
		SCAN_DEPTH=0.00
		SCAN_OFFAXIS_CROSSPLANE=100.00
		SCAN_ANGLE=0.00
		SCAN_DIAGONAL=NOT_DIAGONAL
		MEAS_PRESET=TIME_PRESET
		MEAS_TIME=10.000
		MEAS_UNIT=GY
		PRESSURE=1013.25
		TEMPERATURE=20.00
		NORM_TEMPERATURE=20.00
		CORRECTION_FACTOR=1.0000
		CORRECTIONS=AIR_DENSITY_CORR;
		BEGIN_DATA
			-60.00		7.4312E-03
			-30.00		9.8878E-03
			30.00		10.325E-03
			60.00		8.0753E-03
		END_DATA
	END_SCAN  13
	BEGIN_SCAN  14
		TASK_NAME=MODE_INTERVAL
		PROGRAM=BeamAdjust 1.2
		MEAS_DATE=07-Oct-2010 14:28:16
		LINAC=A4
		MODALITY=X
		INPLANE_AXIS_DIR=TARGET_GUN
		CROSSPLANE_AXIS_DIR=LEFT_RIGHT
		DEPTH_AXIS_DIR=UP_DOWN
		ENERGY=6.00
		SSD=950.00
		WEDGE=None
		FIELD_INPLANE=100.00
		FIELD_CROSSPLANE=100.00
		FIELD_TYPE=RECTANGULAR
		GANTRY=0.00
		GANTRY_UPRIGHT_POSITION=0
		GANTRY_ROTATION=CW
		COLL_ANGLE=90.00
		COLL_OFFSET_INPLANE=0.00
		COLL_OFFSET_CROSSPLANE=0.00
		SCAN_DEVICE=STARCHECK
		ELECTROMETER=2D_ARRAY_INTERFACE
		DETECTOR=STARCHECK
		SCAN_CURVETYPE=INPLANE_PROFILE
		SCAN_DEPTH=0.00
		SCAN_OFFAXIS_CROSSPLANE=130.00
		SCAN_ANGLE=0.00
		SCAN_DIAGONAL=NOT_DIAGONAL
		MEAS_PRESET=TIME_PRESET
		MEAS_TIME=10.000
		MEAS_UNIT=GY
		PRESSURE=1013.25
		TEMPERATURE=20.00
		NORM_TEMPERATURE=20.00
		CORRECTION_FACTOR=1.0000
		CORRECTIONS=AIR_DENSITY_CORR;
		BEGIN_DATA
			-130.00		1.7190E-03
			-125.00		2.0299E-03
			-120.00		1.9483E-03
			-115.00		2.5033E-03
			-110.00		2.1740E-03
			-105.00		2.6389E-03
			-100.00		2.7490E-03
			-95.00		2.5784E-03
			-90.00		2.7132E-03
			-85.00		3.5232E-03
			-80.00		3.2979E-03
			-75.00		3.3455E-03
			-70.00		3.6168E-03
			-65.00		3.6440E-03
			-60.00		4.6726E-03
			-55.00		3.9398E-03
			-50.00		3.8145E-03
			-45.00		4.7651E-03
			-40.00		4.7339E-03
			-35.00		4.8617E-03
			-30.00		5.2355E-03
			-25.00		4.8452E-03
			-20.00		5.4403E-03
			-15.00		4.9796E-03
			-10.00		4.4525E-03
			-5.00		5.5980E-03
			0.00		5.9141E-03
			5.00		5.6418E-03
			10.00		5.8226E-03
			15.00		5.1027E-03
			20.00		5.0508E-03
			25.00		5.3827E-03
			30.00		5.2613E-03
			35.00		5.0821E-03
			40.00		5.5004E-03
			45.00		5.2645E-03
			50.00		5.3501E-03
			55.00		5.3501E-03
			60.00		4.8230E-03
			65.00		4.2770E-03
			70.00		4.1804E-03
			75.00		4.1711E-03
			80.00		4.1833E-03
			85.00		4.1545E-03
			90.00		3.5329E-03
			95.00		3.4587E-03
			100.00		3.8720E-03
			105.00		3.0231E-03
			110.00		2.6635E-03
			115.00		3.0688E-03
			120.00		3.3126E-03
			125.00		2.4482E-03
			130.00		2.2870E-03
		END_DATA
	END_SCAN  14
	BEGIN_SCAN  15
		TASK_NAME=MODE_INTERVAL
		PROGRAM=BeamAdjust 1.2
		MEAS_DATE=07-Oct-2010 14:28:16
		LINAC=A4
		MODALITY=X
		INPLANE_AXIS_DIR=TARGET_GUN
		CROSSPLANE_AXIS_DIR=LEFT_RIGHT
		DEPTH_AXIS_DIR=UP_DOWN
		ENERGY=6.00
		SSD=950.00
		WEDGE=None
		FIELD_INPLANE=100.00
		FIELD_CROSSPLANE=100.00
		FIELD_TYPE=RECTANGULAR
		GANTRY=0.00
		GANTRY_UPRIGHT_POSITION=0
		GANTRY_ROTATION=CW
		COLL_ANGLE=90.00
		COLL_OFFSET_INPLANE=0.00
		COLL_OFFSET_CROSSPLANE=0.00
		SCAN_DEVICE=STARCHECK
		ELECTROMETER=2D_ARRAY_INTERFACE
		DETECTOR=STARCHECK
		SCAN_CURVETYPE=INPLANE_PROFILE
		SCAN_DEPTH=0.00
		SCAN_OFFAXIS_CROSSPLANE=0.00
		SCAN_ANGLE=0.00
		SCAN_DIAGONAL=FIRST_DIAGONAL
		MEAS_PRESET=TIME_PRESET
		MEAS_TIME=10.000
		MEAS_UNIT=GY
		PRESSURE=1013.25
		TEMPERATURE=20.00
		NORM_TEMPERATURE=20.00
		CORRECTION_FACTOR=1.0000
		CORRECTIONS=AIR_DENSITY_CORR;
		BEGIN_DATA
			-172.40		2.4659E-03
			-169.40		2.7496E-03
			-166.40		3.5117E-03
			-163.40		3.4628E-03
			-160.40		3.7446E-03
			-157.40		3.5343E-03
			-154.40		3.7546E-03
			-151.40		3.9095E-03
			-148.40		4.1093E-03
			-145.40		4.7370E-03
			-142.40		5.3199E-03
			-139.40		5.1905E-03
			-136.40		5.9871E-03
			-133.40		6.3378E-03
			-130.40		6.6387E-03
			-127.40		6.9061E-03
			-124.40		7.4301E-03
			-121.40		8.1276E-03
			-118.40		9.1715E-03
			-115.40		9.5854E-03
			-112.40		10.032E-03
			-109.40		11.738E-03
			-106.40		12.528E-03
			-103.40		12.744E-03
			-100.40		14.403E-03
			-97.40		15.994E-03
			-94.40		18.158E-03
			-91.40		19.912E-03
			-88.40		21.991E-03
			-85.40		24.354E-03
			-82.40		27.827E-03
			-79.40		31.218E-03
			-76.40		36.885E-03
			-73.40		47.765E-03
			-70.40		73.194E-03
			-67.40		157.90E-03
			-64.40		317.12E-03
			-61.40		470.70E-03
			-58.40		569.71E-03
			-55.40		613.26E-03
			-52.40		631.73E-03
			-49.40		641.87E-03
			-46.40		646.54E-03
			-43.40		650.45E-03
			-40.40		654.52E-03
			-37.40		659.61E-03
			-34.40		660.01E-03
			-31.40		662.59E-03
			-28.40		661.47E-03
			-25.40		664.35E-03
			-22.40		664.57E-03
			-19.40		663.98E-03
			-16.40		667.06E-03
			-13.40		670.88E-03
			0.00		668.39E-03
			13.40		673.56E-03
			16.40		669.98E-03
			19.40		668.83E-03
			22.40		667.11E-03
			25.40		666.40E-03
			28.40		665.51E-03
			31.40		662.92E-03
			34.40		660.66E-03
			37.40		663.19E-03
			40.40		660.96E-03
			43.40		658.32E-03
			46.40		656.87E-03
			49.40		652.02E-03
			52.40		649.82E-03
			55.40		639.53E-03
			58.40		631.41E-03
			61.40		615.48E-03
			64.40		576.30E-03
			67.40		481.42E-03
			70.40		313.50E-03
			73.40		139.54E-03
			76.40		65.058E-03
			79.40		44.202E-03
			82.40		35.153E-03
			85.40		29.334E-03
			88.40		26.456E-03
			91.40		23.082E-03
			94.40		21.084E-03
			97.40		18.557E-03
			100.40		16.750E-03
			103.40		15.839E-03
			106.40		14.056E-03
			109.40		12.750E-03
			112.40		11.288E-03
			115.40		10.363E-03
			118.40		9.1295E-03
			121.40		8.7498E-03
			124.40		8.2400E-03
			127.40		7.5489E-03
			130.40		7.5825E-03
			133.40		6.6625E-03
			136.40		5.7938E-03
			139.40		4.9895E-03
			142.40		4.4621E-03
			145.40		4.4964E-03
			148.40		4.5364E-03
			151.40		3.2976E-03
			154.40		3.9331E-03
			157.40		3.4673E-03
			160.40		2.3184E-03
			163.40		2.3118E-03
			166.40		2.9212E-03
			169.40		2.1277E-03
			172.40		2.3982E-03
		END_DATA
	END_SCAN  15
	BEGIN_SCAN  16
		TASK_NAME=MODE_INTERVAL
		PROGRAM=BeamAdjust 1.2
		MEAS_DATE=07-Oct-2010 14:28:16
		LINAC=A4
		MODALITY=X
		INPLANE_AXIS_DIR=GUN_TARGET
		CROSSPLANE_AXIS_DIR=LEFT_RIGHT
		DEPTH_AXIS_DIR=UP_DOWN
		ENERGY=6.00
		SSD=950.00
		WEDGE=None
		FIELD_INPLANE=100.00
		FIELD_CROSSPLANE=100.00
		FIELD_TYPE=RECTANGULAR
		GANTRY=0.00
		GANTRY_UPRIGHT_POSITION=0
		GANTRY_ROTATION=CW
		COLL_ANGLE=90.00
		COLL_OFFSET_INPLANE=0.00
		COLL_OFFSET_CROSSPLANE=0.00
		SCAN_DEVICE=STARCHECK
		ELECTROMETER=2D_ARRAY_INTERFACE
		DETECTOR=STARCHECK
		SCAN_CURVETYPE=INPLANE_PROFILE
		SCAN_DEPTH=0.00
		SCAN_OFFAXIS_CROSSPLANE=0.00
		SCAN_ANGLE=0.00
		SCAN_DIAGONAL=SECOND_DIAGONAL
		MEAS_PRESET=TIME_PRESET
		MEAS_TIME=10.000
		MEAS_UNIT=GY
		PRESSURE=1013.25
		TEMPERATURE=20.00
		NORM_TEMPERATURE=20.00
		CORRECTION_FACTOR=1.0000
		CORRECTIONS=AIR_DENSITY_CORR;
		BEGIN_DATA
			-172.40		2.1098E-03
			-169.40		3.2760E-03
			-166.40		2.3705E-03
			-163.40		2.4654E-03
			-160.40		2.5952E-03
			-157.40		3.2707E-03
			-154.40		3.3732E-03
			-151.40		3.5220E-03
			-148.40		4.2272E-03
			-145.40		3.8149E-03
			-142.40		4.8038E-03
			-139.40		4.6969E-03
			-136.40		5.2708E-03
			-133.40		6.3316E-03
			-130.40		6.2308E-03
			-127.40		7.6598E-03
			-124.40		7.8399E-03
			-121.40		8.1909E-03
			-118.40		8.6638E-03
			-115.40		9.2452E-03
			-112.40		9.8467E-03
			-109.40		10.842E-03
			-106.40		12.235E-03
			-103.40		12.943E-03
			-100.40		15.075E-03
			-97.40		15.836E-03
			-94.40		17.309E-03
			-91.40		19.704E-03
			-88.40		20.654E-03
			-85.40		23.917E-03
			-82.40		26.516E-03
			-79.40		30.578E-03
			-76.40		35.838E-03
			-73.40		45.590E-03
			-70.40		66.136E-03
			-67.40		135.78E-03
			-64.40		298.08E-03
			-61.40		462.77E-03
			-58.40		570.81E-03
			-55.40		614.85E-03
			-52.40		637.25E-03
			-49.40		647.06E-03
			-46.40		652.18E-03
			-43.40		657.07E-03
			-40.40		659.03E-03
			-37.40		662.84E-03
			-34.40		663.09E-03
			-31.40		664.95E-03
			-28.40		667.71E-03
			-25.40		667.00E-03
			-22.40		665.17E-03
			-19.40		668.12E-03
			-16.40		669.40E-03
			-13.40		672.38E-03
			0.00		668.39E-03
			13.40		672.02E-03
			16.40		670.35E-03
			19.40		666.50E-03
			22.40		663.55E-03
			25.40		662.73E-03
			28.40		661.86E-03
			31.40		660.45E-03
			34.40		658.16E-03
			37.40		657.54E-03
			40.40		656.90E-03
			43.40		655.16E-03
			46.40		653.46E-03
			49.40		650.61E-03
			52.40		643.35E-03
			55.40		636.77E-03
			58.40		630.81E-03
			61.40		614.16E-03
			64.40		579.89E-03
			67.40		488.86E-03
			70.40		327.30E-03
			73.40		148.54E-03
			76.40		67.892E-03
			79.40		44.816E-03
			82.40		36.153E-03
			85.40		30.819E-03
			88.40		26.322E-03
			91.40		23.917E-03
			94.40		21.313E-03
			97.40		19.178E-03
			100.40		16.631E-03
			103.40		15.365E-03
			106.40		14.380E-03
			109.40		12.800E-03
			112.40		11.834E-03
			115.40		10.693E-03
			118.40		10.141E-03
			121.40		8.8284E-03
			124.40		8.2396E-03
			127.40		7.9757E-03
			130.40		7.2158E-03
			133.40		6.8327E-03
			136.40		6.1541E-03
			139.40		6.0464E-03
			142.40		5.7789E-03
			145.40		5.9686E-03
			148.40		4.9779E-03
			151.40		4.2110E-03
			154.40		4.1430E-03
			157.40		4.0801E-03
			160.40		3.7980E-03
			163.40		3.9590E-03
			166.40		3.4310E-03
			169.40		2.9850E-03
			172.40		2.1412E-03
		END_DATA
	END_SCAN  16
END_SCAN_DATA
