BEGIN_SCAN_DATA
	FORMAT=CC-Export V1.9                  
	FILE_CREATION_DATE=07-Oct-2010 14:28:43
	LAST_MODIFIED=07-Oct-2010 14:28:43
	BEGIN_SCAN  1
		TASK_NAME=MODE_INTERVAL
		PROGRAM=BeamAdjust 1.2
		MEAS_DATE=07-Oct-2010 14:28:43
		LINAC=A4
		MODALITY=X
		INPLANE_AXIS_DIR=TARGET_GUN
		CROSSPLANE_AXIS_DIR=LEFT_RIGHT
		DEPTH_AXIS_DIR=UP_DOWN
		ENERGY=6.00
		SSD=950.00
		WEDGE=None
		FIELD_INPLANE=100.00
		FIELD_CROSSPLANE=100.00
		FIELD_TYPE=RECTANGULAR
		GANTRY=0.00
		GANTRY_UPRIGHT_POSITION=0
		GANTRY_ROTATION=CW
		COLL_ANGLE=90.00
		COLL_OFFSET_INPLANE=0.00
		COLL_OFFSET_CROSSPLANE=0.00
		SCAN_DEVICE=STARCHECK
		ELECTROMETER=2D_ARRAY_INTERFACE
		DETECTOR=STARCHECK
		SCAN_CURVETYPE=CROSSPLANE_PROFILE
		SCAN_DEPTH=0.00
		SCAN_OFFAXIS_INPLANE=-130.00
		SCAN_ANGLE=0.00
		SCAN_DIAGONAL=NOT_DIAGONAL
		MEAS_PRESET=TIME_PRESET
		MEAS_TIME=10.000
		MEAS_UNIT=GY
		PRESSURE=1013.25
		TEMPERATURE=20.00
		NORM_TEMPERATURE=20.00
		CORRECTION_FACTOR=1.0000
		CORRECTIONS=AIR_DENSITY_CORR;
		BEGIN_DATA
			-130.00		2.2846E-03
			-80.00		3.6651E-03
			-40.00		6.2970E-03
			40.00		6.0407E-03
			80.00		3.4596E-03
			130.00		1.6172E-03
		END_DATA
	END_SCAN  1
	BEGIN_SCAN  2
		TASK_NAME=MODE_INTERVAL
		PROGRAM=BeamAdjust 1.2
		MEAS_DATE=07-Oct-2010 14:28:43
		LINAC=A4
		MODALITY=X
		INPLANE_AXIS_DIR=TARGET_GUN
		CROSSPLANE_AXIS_DIR=LEFT_RIGHT
		DEPTH_AXIS_DIR=UP_DOWN
		ENERGY=6.00
		SSD=950.00
		WEDGE=None
		FIELD_INPLANE=100.00
		FIELD_CROSSPLANE=100.00
		FIELD_TYPE=RECTANGULAR
		GANTRY=0.00
		GANTRY_UPRIGHT_POSITION=0
		GANTRY_ROTATION=CW
		COLL_ANGLE=90.00
		COLL_OFFSET_INPLANE=0.00
		COLL_OFFSET_CROSSPLANE=0.00
		SCAN_DEVICE=STARCHECK
		ELECTROMETER=2D_ARRAY_INTERFACE
		DETECTOR=STARCHECK
		SCAN_CURVETYPE=CROSSPLANE_PROFILE
		SCAN_DEPTH=0.00
		SCAN_OFFAXIS_INPLANE=-100.00
		SCAN_ANGLE=0.00
		SCAN_DIAGONAL=NOT_DIAGONAL
		MEAS_PRESET=TIME_PRESET
		MEAS_TIME=10.000
		MEAS_UNIT=GY
		PRESSURE=1013.25
		TEMPERATURE=20.00
		NORM_TEMPERATURE=20.00
		CORRECTION_FACTOR=1.0000
		CORRECTIONS=AIR_DENSITY_CORR;
		BEGIN_DATA
			-60.00		9.2671E-03
			-30.00		12.611E-03
			30.00		13.332E-03
			60.00		8.9975E-03
		END_DATA
	END_SCAN  2
	BEGIN_SCAN  3
		TASK_NAME=MODE_INTERVAL
		PROGRAM=BeamAdjust 1.2
		MEAS_DATE=07-Oct-2010 14:28:43
		LINAC=A4
		MODALITY=X
		INPLANE_AXIS_DIR=TARGET_GUN
		CROSSPLANE_AXIS_DIR=LEFT_RIGHT
		DEPTH_AXIS_DIR=UP_DOWN
		ENERGY=6.00
		SSD=950.00
		WEDGE=None
		FIELD_INPLANE=100.00
		FIELD_CROSSPLANE=100.00
		FIELD_TYPE=RECTANGULAR
		GANTRY=0.00
		GANTRY_UPRIGHT_POSITION=0
		GANTRY_ROTATION=CW
		COLL_ANGLE=90.00
		COLL_OFFSET_INPLANE=0.00
		COLL_OFFSET_CROSSPLANE=0.00
		SCAN_DEVICE=STARCHECK
		ELECTROMETER=2D_ARRAY_INTERFACE
		DETECTOR=STARCHECK
		SCAN_CURVETYPE=CROSSPLANE_PROFILE
		SCAN_DEPTH=0.00
		SCAN_OFFAXIS_INPLANE=-50.00
		SCAN_ANGLE=0.00
		SCAN_DIAGONAL=NOT_DIAGONAL
		MEAS_PRESET=TIME_PRESET
		MEAS_TIME=10.000
		MEAS_UNIT=GY
		PRESSURE=1013.25
		TEMPERATURE=20.00
		NORM_TEMPERATURE=20.00
		CORRECTION_FACTOR=1.0000
		CORRECTIONS=AIR_DENSITY_CORR;
		BEGIN_DATA
			-30.00		88.049E-03
			-15.00		85.135E-03
			15.00		88.860E-03
			30.00		88.293E-03
		END_DATA
	END_SCAN  3
	BEGIN_SCAN  4
		TASK_NAME=MODE_INTERVAL
		PROGRAM=BeamAdjust 1.2
		MEAS_DATE=07-Oct-2010 14:28:43
		LINAC=A4
		MODALITY=X
		INPLANE_AXIS_DIR=TARGET_GUN
		CROSSPLANE_AXIS_DIR=LEFT_RIGHT
		DEPTH_AXIS_DIR=UP_DOWN
		ENERGY=6.00
		SSD=950.00
		WEDGE=None
		FIELD_INPLANE=100.00
		FIELD_CROSSPLANE=100.00
		FIELD_TYPE=RECTANGULAR
		GANTRY=0.00
		GANTRY_UPRIGHT_POSITION=0
		GANTRY_ROTATION=CW
		COLL_ANGLE=90.00
		COLL_OFFSET_INPLANE=0.00
		COLL_OFFSET_CROSSPLANE=0.00
		SCAN_DEVICE=STARCHECK
		ELECTROMETER=2D_ARRAY_INTERFACE
		DETECTOR=STARCHECK
		SCAN_CURVETYPE=CROSSPLANE_PROFILE
		SCAN_DEPTH=0.00
		SCAN_OFFAXIS_INPLANE=0.00
		SCAN_ANGLE=0.00
		SCAN_DIAGONAL=NOT_DIAGONAL
		MEAS_PRESET=TIME_PRESET
		MEAS_TIME=10.000
		MEAS_UNIT=GY
		PRESSURE=1013.25
		TEMPERATURE=20.00
		NORM_TEMPERATURE=20.00
		CORRECTION_FACTOR=1.0000
		CORRECTIONS=AIR_DENSITY_CORR;
		BEGIN_DATA
			-126.00		6.2633E-03
			-123.00		7.3383E-03
			-120.00		7.5270E-03
			-117.00		8.1345E-03
			-114.00		8.7538E-03
			-111.00		8.8350E-03
			-108.00		10.145E-03
			-105.00		10.469E-03
			-102.00		11.863E-03
			-99.00		12.440E-03
			-96.00		13.523E-03
			-93.00		15.138E-03
			-90.00		16.455E-03
			-87.00		17.847E-03
			-84.00		19.811E-03
			-81.00		21.334E-03
			-78.00		23.891E-03
			-75.00		26.714E-03
			-72.00		29.347E-03
			-69.00		33.724E-03
			-66.00		39.023E-03
			-63.00		44.978E-03
			-60.00		54.493E-03
			-57.00		71.876E-03
			-54.00		113.17E-03
			-51.00		287.59E-03
			-48.00		555.10E-03
			-45.00		618.00E-03
			-42.00		637.69E-03
			-39.00		650.25E-03
			-36.00		656.13E-03
			-33.00		656.73E-03
			-30.00		658.69E-03
			-27.00		661.81E-03
			-24.00		663.70E-03
			-21.00		664.00E-03
			-18.00		669.80E-03
			-15.00		670.21E-03
			-12.00		670.00E-03
			-9.00		672.63E-03
			-6.00		671.13E-03
			0.00		670.07E-03
			6.00		673.65E-03
			9.00		672.42E-03
			12.00		670.01E-03
			15.00		669.08E-03
			18.00		668.47E-03
			21.00		666.70E-03
			24.00		662.86E-03
			27.00		667.32E-03
			30.00		665.17E-03
			33.00		662.97E-03
			36.00		659.51E-03
			39.00		653.27E-03
			42.00		642.58E-03
			45.00		617.22E-03
			48.00		530.34E-03
			51.00		236.58E-03
			54.00		102.81E-03
			57.00		68.341E-03
			60.00		53.320E-03
			63.00		43.943E-03
			66.00		37.642E-03
			69.00		32.997E-03
			72.00		29.335E-03
			75.00		26.114E-03
			78.00		23.388E-03
			81.00		21.412E-03
			84.00		19.870E-03
			87.00		17.481E-03
			90.00		16.668E-03
			93.00		14.820E-03
			96.00		12.978E-03
			99.00		12.648E-03
			102.00		11.352E-03
			105.00		10.512E-03
			108.00		10.414E-03
			111.00		8.6184E-03
			114.00		8.3706E-03
			117.00		7.9119E-03
			120.00		7.0438E-03
			123.00		6.6906E-03
			126.00		7.4645E-03
		END_DATA
	END_SCAN  4
	BEGIN_SCAN  5
		TASK_NAME=MODE_INTERVAL
		PROGRAM=BeamAdjust 1.2
		MEAS_DATE=07-Oct-2010 14:28:43
		LINAC=A4
		MODALITY=X
		INPLANE_AXIS_DIR=TARGET_GUN
		CROSSPLANE_AXIS_DIR=LEFT_RIGHT
		DEPTH_AXIS_DIR=UP_DOWN
		ENERGY=6.00
		SSD=950.00
		WEDGE=None
		FIELD_INPLANE=100.00
		FIELD_CROSSPLANE=100.00
		FIELD_TYPE=RECTANGULAR
		GANTRY=0.00
		GANTRY_UPRIGHT_POSITION=0
		GANTRY_ROTATION=CW
		COLL_ANGLE=90.00
		COLL_OFFSET_INPLANE=0.00
		COLL_OFFSET_CROSSPLANE=0.00
		SCAN_DEVICE=STARCHECK
		ELECTROMETER=2D_ARRAY_INTERFACE
		DETECTOR=STARCHECK
		SCAN_CURVETYPE=CROSSPLANE_PROFILE
		SCAN_DEPTH=0.00
		SCAN_OFFAXIS_INPLANE=50.00
		SCAN_ANGLE=0.00
		SCAN_DIAGONAL=NOT_DIAGONAL
		MEAS_PRESET=TIME_PRESET
		MEAS_TIME=10.000
		MEAS_UNIT=GY
		PRESSURE=1013.25
		TEMPERATURE=20.00
		NORM_TEMPERATURE=20.00
		CORRECTION_FACTOR=1.0000
		CORRECTIONS=AIR_DENSITY_CORR;
		BEGIN_DATA
			-30.00		611.00E-03
			-15.00		618.84E-03
			15.00		613.68E-03
			30.00		610.57E-03
		END_DATA
	END_SCAN  5
	BEGIN_SCAN  6
		TASK_NAME=MODE_INTERVAL
		PROGRAM=BeamAdjust 1.2
		MEAS_DATE=07-Oct-2010 14:28:43
		LINAC=A4
		MODALITY=X
		INPLANE_AXIS_DIR=TARGET_GUN
		CROSSPLANE_AXIS_DIR=LEFT_RIGHT
		DEPTH_AXIS_DIR=UP_DOWN
		ENERGY=6.00
		SSD=950.00
		WEDGE=None
		FIELD_INPLANE=100.00
		FIELD_CROSSPLANE=100.00
		FIELD_TYPE=RECTANGULAR
		GANTRY=0.00
		GANTRY_UPRIGHT_POSITION=0
		GANTRY_ROTATION=CW
		COLL_ANGLE=90.00
		COLL_OFFSET_INPLANE=0.00
		COLL_OFFSET_CROSSPLANE=0.00
		SCAN_DEVICE=STARCHECK
		ELECTROMETER=2D_ARRAY_INTERFACE
		DETECTOR=STARCHECK
		SCAN_CURVETYPE=CROSSPLANE_PROFILE
		SCAN_DEPTH=0.00
		SCAN_OFFAXIS_INPLANE=100.00
		SCAN_ANGLE=0.00
		SCAN_DIAGONAL=NOT_DIAGONAL
		MEAS_PRESET=TIME_PRESET
		MEAS_TIME=10.000
		MEAS_UNIT=GY
		PRESSURE=1013.25
		TEMPERATURE=20.00
		NORM_TEMPERATURE=20.00
		CORRECTION_FACTOR=1.0000
		CORRECTIONS=AIR_DENSITY_CORR;
		BEGIN_DATA
			-60.00		11.517E-03
			-30.00		16.796E-03
			30.00		16.870E-03
			60.00		10.228E-03
		END_DATA
	END_SCAN  6
	BEGIN_SCAN  7
		TASK_NAME=MODE_INTERVAL
		PROGRAM=BeamAdjust 1.2
		MEAS_DATE=07-Oct-2010 14:28:43
		LINAC=A4
		MODALITY=X
		INPLANE_AXIS_DIR=TARGET_GUN
		CROSSPLANE_AXIS_DIR=LEFT_RIGHT
		DEPTH_AXIS_DIR=UP_DOWN
		ENERGY=6.00
		SSD=950.00
		WEDGE=None
		FIELD_INPLANE=100.00
		FIELD_CROSSPLANE=100.00
		FIELD_TYPE=RECTANGULAR
		GANTRY=0.00
		GANTRY_UPRIGHT_POSITION=0
		GANTRY_ROTATION=CW
		COLL_ANGLE=90.00
		COLL_OFFSET_INPLANE=0.00
		COLL_OFFSET_CROSSPLANE=0.00
		SCAN_DEVICE=STARCHECK
		ELECTROMETER=2D_ARRAY_INTERFACE
		DETECTOR=STARCHECK
		SCAN_CURVETYPE=CROSSPLANE_PROFILE
		SCAN_DEPTH=0.00
		SCAN_OFFAXIS_INPLANE=130.00
		SCAN_ANGLE=0.00
		SCAN_DIAGONAL=NOT_DIAGONAL
		MEAS_PRESET=TIME_PRESET
		MEAS_TIME=10.000
		MEAS_UNIT=GY
		PRESSURE=1013.25
		TEMPERATURE=20.00
		NORM_TEMPERATURE=20.00
		CORRECTION_FACTOR=1.0000
		CORRECTIONS=AIR_DENSITY_CORR;
		BEGIN_DATA
			-130.00		2.1085E-03
			-80.00		4.2564E-03
			-40.00		8.0275E-03
			40.00		7.9678E-03
			80.00		4.4449E-03
			130.00		2.3181E-03
		END_DATA
	END_SCAN  7
	BEGIN_SCAN  8
		TASK_NAME=MODE_INTERVAL
		PROGRAM=BeamAdjust 1.2
		MEAS_DATE=07-Oct-2010 14:28:43
		LINAC=A4
		MODALITY=X
		INPLANE_AXIS_DIR=TARGET_GUN
		CROSSPLANE_AXIS_DIR=LEFT_RIGHT
		DEPTH_AXIS_DIR=UP_DOWN
		ENERGY=6.00
		SSD=950.00
		WEDGE=None
		FIELD_INPLANE=100.00
		FIELD_CROSSPLANE=100.00
		FIELD_TYPE=RECTANGULAR
		GANTRY=0.00
		GANTRY_UPRIGHT_POSITION=0
		GANTRY_ROTATION=CW
		COLL_ANGLE=90.00
		COLL_OFFSET_INPLANE=0.00
		COLL_OFFSET_CROSSPLANE=0.00
		SCAN_DEVICE=STARCHECK
		ELECTROMETER=2D_ARRAY_INTERFACE
		DETECTOR=STARCHECK
		SCAN_CURVETYPE=INPLANE_PROFILE
		SCAN_DEPTH=0.00
		SCAN_OFFAXIS_CROSSPLANE=-130.00
		SCAN_ANGLE=0.00
		SCAN_DIAGONAL=NOT_DIAGONAL
		MEAS_PRESET=TIME_PRESET
		MEAS_TIME=10.000
		MEAS_UNIT=GY
		PRESSURE=1013.25
		TEMPERATURE=20.00
		NORM_TEMPERATURE=20.00
		CORRECTION_FACTOR=1.0000
		CORRECTIONS=AIR_DENSITY_CORR;
		BEGIN_DATA
			-130.00		2.2846E-03
			-125.00		2.2663E-03
			-120.00		2.7361E-03
			-115.00		2.9354E-03
			-110.00		3.1480E-03
			-105.00		3.3135E-03
			-100.00		3.6108E-03
			-95.00		4.7452E-03
			-90.00		4.1196E-03
			-85.00		4.0779E-03
			-80.00		4.0250E-03
			-75.00		4.4635E-03
			-70.00		4.6139E-03
			-65.00		4.6484E-03
			-60.00		4.8671E-03
			-55.00		5.7627E-03
			-50.00		4.0433E-03
			-45.00		4.4859E-03
			-40.00		4.5829E-03
			-35.00		5.1216E-03
			-30.00		5.3475E-03
			-25.00		5.2528E-03
			-20.00		4.9847E-03
			-15.00		4.7087E-03
			-10.00		5.1283E-03
			-5.00		5.6179E-03
			0.00		5.4948E-03
			5.00		6.5504E-03
			10.00		5.8596E-03
			15.00		5.3431E-03
			20.00		5.7083E-03
			25.00		5.0345E-03
			30.00		5.4707E-03
			35.00		5.4927E-03
			40.00		4.7154E-03
			45.00		4.9188E-03
			50.00		4.9447E-03
			55.00		4.6340E-03
			60.00		4.3594E-03
			65.00		3.8491E-03
			70.00		4.0503E-03
			75.00		3.8231E-03
			80.00		3.4824E-03
			85.00		3.4257E-03
			90.00		3.2782E-03
			95.00		3.4972E-03
			100.00		2.9623E-03
			105.00		2.3081E-03
			110.00		3.0317E-03
			115.00		2.3485E-03
			120.00		2.3922E-03
			125.00		2.1562E-03
			130.00		2.1085E-03
		END_DATA
	END_SCAN  8
	BEGIN_SCAN  9
		TASK_NAME=MODE_INTERVAL
		PROGRAM=BeamAdjust 1.2
		MEAS_DATE=07-Oct-2010 14:28:43
		LINAC=A4
		MODALITY=X
		INPLANE_AXIS_DIR=TARGET_GUN
		CROSSPLANE_AXIS_DIR=LEFT_RIGHT
		DEPTH_AXIS_DIR=UP_DOWN
		ENERGY=6.00
		SSD=950.00
		WEDGE=None
		FIELD_INPLANE=100.00
		FIELD_CROSSPLANE=100.00
		FIELD_TYPE=RECTANGULAR
		GANTRY=0.00
		GANTRY_UPRIGHT_POSITION=0
		GANTRY_ROTATION=CW
		COLL_ANGLE=90.00
		COLL_OFFSET_INPLANE=0.00
		COLL_OFFSET_CROSSPLANE=0.00
		SCAN_DEVICE=STARCHECK
		ELECTROMETER=2D_ARRAY_INTERFACE
		DETECTOR=STARCHECK
		SCAN_CURVETYPE=INPLANE_PROFILE
		SCAN_DEPTH=0.00
		SCAN_OFFAXIS_CROSSPLANE=-100.00
		SCAN_ANGLE=0.00
		SCAN_DIAGONAL=NOT_DIAGONAL
		MEAS_PRESET=TIME_PRESET
		MEAS_TIME=10.000
		MEAS_UNIT=GY
		PRESSURE=1013.25
		TEMPERATURE=20.00
		NORM_TEMPERATURE=20.00
		CORRECTION_FACTOR=1.0000
		CORRECTIONS=AIR_DENSITY_CORR;
		BEGIN_DATA
			-60.00		7.9671E-03
			-30.00		9.9007E-03
			30.00		10.410E-03
			60.00		8.4333E-03
		END_DATA
	END_SCAN  9
	BEGIN_SCAN  10
		TASK_NAME=MODE_INTERVAL
		PROGRAM=BeamAdjust 1.2
		MEAS_DATE=07-Oct-2010 14:28:43
		LINAC=A4
		MODALITY=X
		INPLANE_AXIS_DIR=TARGET_GUN
		CROSSPLANE_AXIS_DIR=LEFT_RIGHT
		DEPTH_AXIS_DIR=UP_DOWN
		ENERGY=6.00
		SSD=950.00
		WEDGE=None
		FIELD_INPLANE=100.00
		FIELD_CROSSPLANE=100.00
		FIELD_TYPE=RECTANGULAR
		GANTRY=0.00
		GANTRY_UPRIGHT_POSITION=0
		GANTRY_ROTATION=CW
		COLL_ANGLE=90.00
		COLL_OFFSET_INPLANE=0.00
		COLL_OFFSET_CROSSPLANE=0.00
		SCAN_DEVICE=STARCHECK
		ELECTROMETER=2D_ARRAY_INTERFACE
		DETECTOR=STARCHECK
		SCAN_CURVETYPE=INPLANE_PROFILE
		SCAN_DEPTH=0.00
		SCAN_OFFAXIS_CROSSPLANE=-50.00
		SCAN_ANGLE=0.00
		SCAN_DIAGONAL=NOT_DIAGONAL
		MEAS_PRESET=TIME_PRESET
		MEAS_TIME=10.000
		MEAS_UNIT=GY
		PRESSURE=1013.25
		TEMPERATURE=20.00
		NORM_TEMPERATURE=20.00
		CORRECTION_FACTOR=1.0000
		CORRECTIONS=AIR_DENSITY_CORR;
		BEGIN_DATA
			-30.00		391.82E-03
			-15.00		390.79E-03
			15.00		381.55E-03
			30.00		372.10E-03
		END_DATA
	END_SCAN  10
	BEGIN_SCAN  11
		TASK_NAME=MODE_INTERVAL
		PROGRAM=BeamAdjust 1.2
		MEAS_DATE=07-Oct-2010 14:28:43
		LINAC=A4
		MODALITY=X
		INPLANE_AXIS_DIR=TARGET_GUN
		CROSSPLANE_AXIS_DIR=LEFT_RIGHT
		DEPTH_AXIS_DIR=UP_DOWN
		ENERGY=6.00
		SSD=950.00
		WEDGE=None
		FIELD_INPLANE=100.00
		FIELD_CROSSPLANE=100.00
		FIELD_TYPE=RECTANGULAR
		GANTRY=0.00
		GANTRY_UPRIGHT_POSITION=0
		GANTRY_ROTATION=CW
		COLL_ANGLE=90.00
		COLL_OFFSET_INPLANE=0.00
		COLL_OFFSET_CROSSPLANE=0.00
		SCAN_DEVICE=STARCHECK
		ELECTROMETER=2D_ARRAY_INTERFACE
		DETECTOR=STARCHECK
		SCAN_CURVETYPE=INPLANE_PROFILE
		SCAN_DEPTH=0.00
		SCAN_OFFAXIS_CROSSPLANE=0.00
		SCAN_ANGLE=0.00
		SCAN_DIAGONAL=NOT_DIAGONAL
		MEAS_PRESET=TIME_PRESET
		MEAS_TIME=10.000
		MEAS_UNIT=GY
		PRESSURE=1013.25
		TEMPERATURE=20.00
		NORM_TEMPERATURE=20.00
		CORRECTION_FACTOR=1.0000
		CORRECTIONS=AIR_DENSITY_CORR;
		BEGIN_DATA
			-126.00		8.1310E-03
			-123.00		7.9178E-03
			-120.00		9.0047E-03
			-117.00		10.148E-03
			-114.00		10.458E-03
			-111.00		11.065E-03
			-108.00		12.058E-03
			-105.00		12.916E-03
			-102.00		14.159E-03
			-99.00		14.646E-03
			-96.00		15.611E-03
			-93.00		17.847E-03
			-90.00		19.371E-03
			-87.00		20.465E-03
			-84.00		22.055E-03
			-81.00		24.363E-03
			-78.00		26.263E-03
			-75.00		28.110E-03
			-72.00		30.992E-03
			-69.00		33.418E-03
			-66.00		37.242E-03
			-63.00		41.566E-03
			-60.00		46.559E-03
			-57.00		54.108E-03
			-54.00		65.614E-03
			-51.00		87.481E-03
			-48.00		152.25E-03
			-45.00		360.35E-03
			-42.00		580.08E-03
			-39.00		629.91E-03
			-36.00		647.14E-03
			-33.00		655.55E-03
			-30.00		661.66E-03
			-27.00		665.36E-03
			-24.00		665.83E-03
			-21.00		665.09E-03
			-18.00		670.66E-03
			-15.00		668.37E-03
			-12.00		671.07E-03
			-9.00		673.38E-03
			-6.00		672.37E-03
			0.00		670.07E-03
			6.00		672.22E-03
			9.00		671.47E-03
			12.00		672.46E-03
			15.00		673.21E-03
			18.00		669.18E-03
			21.00		667.26E-03
			24.00		663.34E-03
			27.00		665.04E-03
			30.00		662.20E-03
			33.00		661.60E-03
			36.00		661.20E-03
			39.00		653.32E-03
			42.00		650.77E-03
			45.00		645.40E-03
			48.00		624.69E-03
			51.00		583.55E-03
			54.00		381.07E-03
			57.00		162.82E-03
			60.00		90.483E-03
			63.00		65.867E-03
			66.00		54.768E-03
			69.00		47.135E-03
			72.00		41.665E-03
			75.00		36.816E-03
			78.00		32.532E-03
			81.00		30.671E-03
			84.00		27.582E-03
			87.00		25.321E-03
			90.00		23.864E-03
			93.00		21.329E-03
			96.00		20.048E-03
			99.00		18.066E-03
			102.00		16.711E-03
			105.00		15.236E-03
			108.00		14.479E-03
			111.00		13.281E-03
			114.00		12.351E-03
			117.00		11.382E-03
			120.00		10.881E-03
			123.00		9.5530E-03
			126.00		9.1657E-03
		END_DATA
	END_SCAN  11
	BEGIN_SCAN  12
		TASK_NAME=MODE_INTERVAL
		PROGRAM=BeamAdjust 1.2
		MEAS_DATE=07-Oct-2010 14:28:43
		LINAC=A4
		MODALITY=X
		INPLANE_AXIS_DIR=TARGET_GUN
		CROSSPLANE_AXIS_DIR=LEFT_RIGHT
		DEPTH_AXIS_DIR=UP_DOWN
		ENERGY=6.00
		SSD=950.00
		WEDGE=None
		FIELD_INPLANE=100.00
		FIELD_CROSSPLANE=100.00
		FIELD_TYPE=RECTANGULAR
		GANTRY=0.00
		GANTRY_UPRIGHT_POSITION=0
		GANTRY_ROTATION=CW
		COLL_ANGLE=90.00
		COLL_OFFSET_INPLANE=0.00
		COLL_OFFSET_CROSSPLANE=0.00
		SCAN_DEVICE=STARCHECK
		ELECTROMETER=2D_ARRAY_INTERFACE
		DETECTOR=STARCHECK
		SCAN_CURVETYPE=INPLANE_PROFILE
		SCAN_DEPTH=0.00
		SCAN_OFFAXIS_CROSSPLANE=50.00
		SCAN_ANGLE=0.00
		SCAN_DIAGONAL=NOT_DIAGONAL
		MEAS_PRESET=TIME_PRESET
		MEAS_TIME=10.000
		MEAS_UNIT=GY
		PRESSURE=1013.25
		TEMPERATURE=20.00
		NORM_TEMPERATURE=20.00
		CORRECTION_FACTOR=1.0000
		CORRECTIONS=AIR_DENSITY_CORR;
		BEGIN_DATA
			-30.00		328.09E-03
			-15.00		339.40E-03
			15.00		348.97E-03
			30.00		351.32E-03
		END_DATA
	END_SCAN  12
	BEGIN_SCAN  13
		TASK_NAME=MODE_INTERVAL
		PROGRAM=BeamAdjust 1.2
		MEAS_DATE=07-Oct-2010 14:28:43
		LINAC=A4
		MODALITY=X
		INPLANE_AXIS_DIR=TARGET_GUN
		CROSSPLANE_AXIS_DIR=LEFT_RIGHT
		DEPTH_AXIS_DIR=UP_DOWN
		ENERGY=6.00
		SSD=950.00
		WEDGE=None
		FIELD_INPLANE=100.00
		FIELD_CROSSPLANE=100.00
		FIELD_TYPE=RECTANGULAR
		GANTRY=0.00
		GANTRY_UPRIGHT_POSITION=0
		GANTRY_ROTATION=CW
		COLL_ANGLE=90.00
		COLL_OFFSET_INPLANE=0.00
		COLL_OFFSET_CROSSPLANE=0.00
		SCAN_DEVICE=STARCHECK
		ELECTROMETER=2D_ARRAY_INTERFACE
		DETECTOR=STARCHECK
		SCAN_CURVETYPE=INPLANE_PROFILE
		SCAN_DEPTH=0.00
		SCAN_OFFAXIS_CROSSPLANE=100.00
		SCAN_ANGLE=0.00
		SCAN_DIAGONAL=NOT_DIAGONAL
		MEAS_PRESET=TIME_PRESET
		MEAS_TIME=10.000
		MEAS_UNIT=GY
		PRESSURE=1013.25
		TEMPERATURE=20.00
		NORM_TEMPERATURE=20.00
		CORRECTION_FACTOR=1.0000
		CORRECTIONS=AIR_DENSITY_CORR;
		BEGIN_DATA
			-60.00		7.3003E-03
			-30.00		10.036E-03
			30.00		10.642E-03
			60.00		7.6711E-03
		END_DATA
	END_SCAN  13
	BEGIN_SCAN  14
		TASK_NAME=MODE_INTERVAL
		PROGRAM=BeamAdjust 1.2
		MEAS_DATE=07-Oct-2010 14:28:43
		LINAC=A4
		MODALITY=X
		INPLANE_AXIS_DIR=TARGET_GUN
		CROSSPLANE_AXIS_DIR=LEFT_RIGHT
		DEPTH_AXIS_DIR=UP_DOWN
		ENERGY=6.00
		SSD=950.00
		WEDGE=None
		FIELD_INPLANE=100.00
		FIELD_CROSSPLANE=100.00
		FIELD_TYPE=RECTANGULAR
		GANTRY=0.00
		GANTRY_UPRIGHT_POSITION=0
		GANTRY_ROTATION=CW
		COLL_ANGLE=90.00
		COLL_OFFSET_INPLANE=0.00
		COLL_OFFSET_CROSSPLANE=0.00
		SCAN_DEVICE=STARCHECK
		ELECTROMETER=2D_ARRAY_INTERFACE
		DETECTOR=STARCHECK
		SCAN_CURVETYPE=INPLANE_PROFILE
		SCAN_DEPTH=0.00
		SCAN_OFFAXIS_CROSSPLANE=130.00
		SCAN_ANGLE=0.00
		SCAN_DIAGONAL=NOT_DIAGONAL
		MEAS_PRESET=TIME_PRESET
		MEAS_TIME=10.000
		MEAS_UNIT=GY
		PRESSURE=1013.25
		TEMPERATURE=20.00
		NORM_TEMPERATURE=20.00
		CORRECTION_FACTOR=1.0000
		CORRECTIONS=AIR_DENSITY_CORR;
		BEGIN_DATA
			-130.00		1.6172E-03
			-125.00		2.1145E-03
			-120.00		2.2364E-03
			-115.00		2.1935E-03
			-110.00		2.5644E-03
			-105.00		2.5540E-03
			-100.00		2.6687E-03
			-95.00		2.7314E-03
			-90.00		2.3385E-03
			-85.00		3.7768E-03
			-80.00		3.2964E-03
			-75.00		3.2154E-03
			-70.00		3.5785E-03
			-65.00		3.5614E-03
			-60.00		4.3604E-03
			-55.00		4.0756E-03
			-50.00		3.8573E-03
			-45.00		4.7725E-03
			-40.00		4.5640E-03
			-35.00		5.0687E-03
			-30.00		5.3261E-03
			-25.00		4.5869E-03
			-20.00		5.2083E-03
			-15.00		5.4624E-03
			-10.00		4.4097E-03
			-5.00		5.5274E-03
			0.00		5.7907E-03
			5.00		5.8735E-03
			10.00		5.5129E-03
			15.00		5.3237E-03
			20.00		5.2713E-03
			25.00		4.8875E-03
			30.00		5.4083E-03
			35.00		5.0273E-03
			40.00		5.4739E-03
			45.00		5.2719E-03
			50.00		4.8501E-03
			55.00		5.8614E-03
			60.00		4.9941E-03
			65.00		4.0477E-03
			70.00		4.2658E-03
			75.00		4.3092E-03
			80.00		4.3952E-03
			85.00		3.6480E-03
			90.00		3.3531E-03
			95.00		3.7497E-03
			100.00		3.4903E-03
			105.00		3.1846E-03
			110.00		2.6176E-03
			115.00		2.7491E-03
			120.00		2.9822E-03
			125.00		2.9969E-03
			130.00		2.3181E-03
		END_DATA
	END_SCAN  14
	BEGIN_SCAN  15
		TASK_NAME=MODE_INTERVAL
		PROGRAM=BeamAdjust 1.2
		MEAS_DATE=07-Oct-2010 14:28:43
		LINAC=A4
		MODALITY=X
		INPLANE_AXIS_DIR=TARGET_GUN
		CROSSPLANE_AXIS_DIR=LEFT_RIGHT
		DEPTH_AXIS_DIR=UP_DOWN
		ENERGY=6.00
		SSD=950.00
		WEDGE=None
		FIELD_INPLANE=100.00
		FIELD_CROSSPLANE=100.00
		FIELD_TYPE=RECTANGULAR
		GANTRY=0.00
		GANTRY_UPRIGHT_POSITION=0
		GANTRY_ROTATION=CW
		COLL_ANGLE=90.00
		COLL_OFFSET_INPLANE=0.00
		COLL_OFFSET_CROSSPLANE=0.00
		SCAN_DEVICE=STARCHECK
		ELECTROMETER=2D_ARRAY_INTERFACE
		DETECTOR=STARCHECK
		SCAN_CURVETYPE=INPLANE_PROFILE
		SCAN_DEPTH=0.00
		SCAN_OFFAXIS_CROSSPLANE=0.00
		SCAN_ANGLE=0.00
		SCAN_DIAGONAL=FIRST_DIAGONAL
		MEAS_PRESET=TIME_PRESET
		MEAS_TIME=10.000
		MEAS_UNIT=GY
		PRESSURE=1013.25
		TEMPERATURE=20.00
		NORM_TEMPERATURE=20.00
		CORRECTION_FACTOR=1.0000
		CORRECTIONS=AIR_DENSITY_CORR;
		BEGIN_DATA
			-172.40		2.3470E-03
			-169.40		2.8394E-03
			-166.40		3.5477E-03
			-163.40		3.2283E-03
			-160.40		3.6208E-03
			-157.40		3.7280E-03
			-154.40		3.5896E-03
			-151.40		3.8219E-03
			-148.40		4.2345E-03
			-145.40		4.6208E-03
			-142.40		5.1789E-03
			-139.40		5.3677E-03
			-136.40		5.7191E-03
			-133.40		6.6630E-03
			-130.40		6.7799E-03
			-127.40		6.5723E-03
			-124.40		7.6970E-03
			-121.40		8.2727E-03
			-118.40		8.8102E-03
			-115.40		9.7589E-03
			-112.40		10.164E-03
			-109.40		11.444E-03
			-106.40		12.459E-03
			-103.40		13.048E-03
			-100.40		13.952E-03
			-97.40		16.279E-03
			-94.40		17.637E-03
			-91.40		19.992E-03
			-88.40		21.866E-03
			-85.40		24.367E-03
			-82.40		27.373E-03
			-79.40		31.072E-03
			-76.40		36.612E-03
			-73.40		46.638E-03
			-70.40		70.091E-03
			-67.40		145.94E-03
			-64.40		298.14E-03
			-61.40		454.68E-03
			-58.40		560.50E-03
			-55.40		611.25E-03
			-52.40		631.35E-03
			-49.40		642.50E-03
			-46.40		647.51E-03
			-43.40		651.40E-03
			-40.40		655.31E-03
			-37.40		660.76E-03
			-34.40		660.82E-03
			-31.40		663.79E-03
			-28.40		662.78E-03
			-25.40		665.57E-03
			-22.40		665.71E-03
			-19.40		665.20E-03
			-16.40		668.36E-03
			-13.40		671.92E-03
			0.00		670.07E-03
			13.40		675.25E-03
			16.40		671.14E-03
			19.40		670.19E-03
			22.40		668.66E-03
			25.40		667.26E-03
			28.40		666.35E-03
			31.40		664.41E-03
			34.40		661.79E-03
			37.40		664.53E-03
			40.40		662.41E-03
			43.40		659.56E-03
			46.40		658.22E-03
			49.40		653.38E-03
			52.40		651.01E-03
			55.40		641.59E-03
			58.40		633.05E-03
			61.40		617.77E-03
			64.40		578.98E-03
			67.40		485.14E-03
			70.40		320.66E-03
			73.40		146.32E-03
			76.40		66.956E-03
			79.40		45.016E-03
			82.40		35.544E-03
			85.40		29.666E-03
			88.40		26.775E-03
			91.40		22.990E-03
			94.40		20.970E-03
			97.40		19.097E-03
			100.40		17.132E-03
			103.40		15.517E-03
			106.40		14.120E-03
			109.40		13.203E-03
			112.40		11.259E-03
			115.40		10.575E-03
			118.40		9.5938E-03
			121.40		8.8464E-03
			124.40		8.1984E-03
			127.40		8.0984E-03
			130.40		7.3427E-03
			133.40		6.3914E-03
			136.40		5.5199E-03
			139.40		5.5373E-03
			142.40		4.5035E-03
			145.40		4.7832E-03
			148.40		4.6651E-03
			151.40		3.6222E-03
			154.40		3.8168E-03
			157.40		3.5133E-03
			160.40		2.3258E-03
			163.40		2.4696E-03
			166.40		2.6074E-03
			169.40		2.3823E-03
			172.40		2.5071E-03
		END_DATA
	END_SCAN  15
	BEGIN_SCAN  16
		TASK_NAME=MODE_INTERVAL
		PROGRAM=BeamAdjust 1.2
		MEAS_DATE=07-Oct-2010 14:28:43
		LINAC=A4
		MODALITY=X
		INPLANE_AXIS_DIR=GUN_TARGET
		CROSSPLANE_AXIS_DIR=LEFT_RIGHT
		DEPTH_AXIS_DIR=UP_DOWN
		ENERGY=6.00
		SSD=950.00
		WEDGE=None
		FIELD_INPLANE=100.00
		FIELD_CROSSPLANE=100.00
		FIELD_TYPE=RECTANGULAR
		GANTRY=0.00
		GANTRY_UPRIGHT_POSITION=0
		GANTRY_ROTATION=CW
		COLL_ANGLE=90.00
		COLL_OFFSET_INPLANE=0.00
		COLL_OFFSET_CROSSPLANE=0.00
		SCAN_DEVICE=STARCHECK
		ELECTROMETER=2D_ARRAY_INTERFACE
		DETECTOR=STARCHECK
		SCAN_CURVETYPE=INPLANE_PROFILE
		SCAN_DEPTH=0.00
		SCAN_OFFAXIS_CROSSPLANE=0.00
		SCAN_ANGLE=0.00
		SCAN_DIAGONAL=SECOND_DIAGONAL
		MEAS_PRESET=TIME_PRESET
		MEAS_TIME=10.000
		MEAS_UNIT=GY
		PRESSURE=1013.25
		TEMPERATURE=20.00
		NORM_TEMPERATURE=20.00
		CORRECTION_FACTOR=1.0000
		CORRECTIONS=AIR_DENSITY_CORR;
		BEGIN_DATA
			-172.40		2.6600E-03
			-169.40		2.5611E-03
			-166.40		2.4689E-03
			-163.40		2.4446E-03
			-160.40		3.0114E-03
			-157.40		2.9543E-03
			-154.40		3.4695E-03
			-151.40		3.9253E-03
			-148.40		3.9759E-03
			-145.40		3.9646E-03
			-142.40		4.7536E-03
			-139.40		4.7221E-03
			-136.40		5.1878E-03
			-133.40		6.0105E-03
			-130.40		6.6904E-03
			-127.40		7.0312E-03
			-124.40		7.7290E-03
			-121.40		8.2832E-03
			-118.40		8.7216E-03
			-115.40		9.4069E-03
			-112.40		9.8184E-03
			-109.40		10.934E-03
			-106.40		11.947E-03
			-103.40		13.224E-03
			-100.40		14.483E-03
			-97.40		15.670E-03
			-94.40		17.073E-03
			-91.40		19.123E-03
			-88.40		21.122E-03
			-85.40		23.145E-03
			-82.40		26.134E-03
			-79.40		30.294E-03
			-76.40		35.525E-03
			-73.40		44.579E-03
			-70.40		63.503E-03
			-67.40		126.21E-03
			-64.40		280.14E-03
			-61.40		445.98E-03
			-58.40		562.11E-03
			-55.40		612.44E-03
			-52.40		637.12E-03
			-49.40		646.86E-03
			-46.40		653.26E-03
			-43.40		657.41E-03
			-40.40		660.15E-03
			-37.40		663.83E-03
			-34.40		664.21E-03
			-31.40		665.91E-03
			-28.40		669.06E-03
			-25.40		668.15E-03
			-22.40		666.34E-03
			-19.40		669.38E-03
			-16.40		670.31E-03
			-13.40		673.34E-03
			0.00		670.07E-03
			13.40		673.29E-03
			16.40		671.63E-03
			19.40		668.16E-03
			22.40		664.68E-03
			25.40		663.96E-03
			28.40		663.07E-03
			31.40		661.93E-03
			34.40		659.17E-03
			37.40		659.07E-03
			40.40		657.83E-03
			43.40		656.23E-03
			46.40		655.10E-03
			49.40		651.78E-03
			52.40		644.51E-03
			55.40		638.83E-03
			58.40		632.71E-03
			61.40		616.15E-03
			64.40		581.84E-03
			67.40		491.79E-03
			70.40		333.28E-03
			73.40		155.54E-03
			76.40		69.495E-03
			79.40		45.730E-03
			82.40		36.664E-03
			85.40		31.030E-03
			88.40		26.782E-03
			91.40		24.090E-03
			94.40		21.580E-03
			97.40		19.404E-03
			100.40		17.114E-03
			103.40		15.401E-03
			106.40		14.266E-03
			109.40		13.020E-03
			112.40		11.907E-03
			115.40		10.915E-03
			118.40		9.9169E-03
			121.40		9.2336E-03
			124.40		8.0840E-03
			127.40		7.5584E-03
			130.40		7.7369E-03
			133.40		6.7760E-03
			136.40		6.0690E-03
			139.40		6.4308E-03
			142.40		6.1195E-03
			145.40		5.2753E-03
			148.40		4.9734E-03
			151.40		4.1990E-03
			154.40		3.9868E-03
			157.40		3.8984E-03
			160.40		3.8867E-03
			163.40		3.6737E-03
			166.40		3.5338E-03
			169.40		2.8630E-03
			172.40		2.2408E-03
		END_DATA
	END_SCAN  16
END_SCAN_DATA
