BEGIN_SCAN_DATA
	FORMAT=CC-Export V1.9                  
	FILE_CREATION_DATE=07-Oct-2010 14:29:15
	LAST_MODIFIED=07-Oct-2010 14:29:15
	BEGIN_SCAN  1
		TASK_NAME=MODE_INTERVAL
		PROGRAM=BeamAdjust 1.2
		MEAS_DATE=07-Oct-2010 14:29:15
		LINAC=A4
		MODALITY=X
		INPLANE_AXIS_DIR=TARGET_GUN
		CROSSPLANE_AXIS_DIR=LEFT_RIGHT
		DEPTH_AXIS_DIR=UP_DOWN
		ENERGY=6.00
		SSD=950.00
		WEDGE=None
		FIELD_INPLANE=100.00
		FIELD_CROSSPLANE=100.00
		FIELD_TYPE=RECTANGULAR
		GANTRY=0.00
		GANTRY_UPRIGHT_POSITION=0
		GANTRY_ROTATION=CW
		COLL_ANGLE=90.00
		COLL_OFFSET_INPLANE=0.00
		COLL_OFFSET_CROSSPLANE=0.00
		SCAN_DEVICE=STARCHECK
		ELECTROMETER=2D_ARRAY_INTERFACE
		DETECTOR=STARCHECK
		SCAN_CURVETYPE=CROSSPLANE_PROFILE
		SCAN_DEPTH=0.00
		SCAN_OFFAXIS_INPLANE=-130.00
		SCAN_ANGLE=0.00
		SCAN_DIAGONAL=NOT_DIAGONAL
		MEAS_PRESET=TIME_PRESET
		MEAS_TIME=10.000
		MEAS_UNIT=GY
		PRESSURE=1013.25
		TEMPERATURE=20.00
		NORM_TEMPERATURE=20.00
		CORRECTION_FACTOR=1.0000
		CORRECTIONS=AIR_DENSITY_CORR;
		BEGIN_DATA
			-130.00		2.2089E-03
			-80.00		4.2538E-03
			-40.00		6.2565E-03
			40.00		6.3373E-03
			80.00		3.3567E-03
			130.00		1.8477E-03
		END_DATA
	END_SCAN  1
	BEGIN_SCAN  2
		TASK_NAME=MODE_INTERVAL
		PROGRAM=BeamAdjust 1.2
		MEAS_DATE=07-Oct-2010 14:29:15
		LINAC=A4
		MODALITY=X
		INPLANE_AXIS_DIR=TARGET_GUN
		CROSSPLANE_AXIS_DIR=LEFT_RIGHT
		DEPTH_AXIS_DIR=UP_DOWN
		ENERGY=6.00
		SSD=950.00
		WEDGE=None
		FIELD_INPLANE=100.00
		FIELD_CROSSPLANE=100.00
		FIELD_TYPE=RECTANGULAR
		GANTRY=0.00
		GANTRY_UPRIGHT_POSITION=0
		GANTRY_ROTATION=CW
		COLL_ANGLE=90.00
		COLL_OFFSET_INPLANE=0.00
		COLL_OFFSET_CROSSPLANE=0.00
		SCAN_DEVICE=STARCHECK
		ELECTROMETER=2D_ARRAY_INTERFACE
		DETECTOR=STARCHECK
		SCAN_CURVETYPE=CROSSPLANE_PROFILE
		SCAN_DEPTH=0.00
		SCAN_OFFAXIS_INPLANE=-100.00
		SCAN_ANGLE=0.00
		SCAN_DIAGONAL=NOT_DIAGONAL
		MEAS_PRESET=TIME_PRESET
		MEAS_TIME=10.000
		MEAS_UNIT=GY
		PRESSURE=1013.25
		TEMPERATURE=20.00
		NORM_TEMPERATURE=20.00
		CORRECTION_FACTOR=1.0000
		CORRECTIONS=AIR_DENSITY_CORR;
		BEGIN_DATA
			-60.00		9.0568E-03
			-30.00		12.634E-03
			30.00		13.037E-03
			60.00		9.1843E-03
		END_DATA
	END_SCAN  2
	BEGIN_SCAN  3
		TASK_NAME=MODE_INTERVAL
		PROGRAM=BeamAdjust 1.2
		MEAS_DATE=07-Oct-2010 14:29:15
		LINAC=A4
		MODALITY=X
		INPLANE_AXIS_DIR=TARGET_GUN
		CROSSPLANE_AXIS_DIR=LEFT_RIGHT
		DEPTH_AXIS_DIR=UP_DOWN
		ENERGY=6.00
		SSD=950.00
		WEDGE=None
		FIELD_INPLANE=100.00
		FIELD_CROSSPLANE=100.00
		FIELD_TYPE=RECTANGULAR
		GANTRY=0.00
		GANTRY_UPRIGHT_POSITION=0
		GANTRY_ROTATION=CW
		COLL_ANGLE=90.00
		COLL_OFFSET_INPLANE=0.00
		COLL_OFFSET_CROSSPLANE=0.00
		SCAN_DEVICE=STARCHECK
		ELECTROMETER=2D_ARRAY_INTERFACE
		DETECTOR=STARCHECK
		SCAN_CURVETYPE=CROSSPLANE_PROFILE
		SCAN_DEPTH=0.00
		SCAN_OFFAXIS_INPLANE=-50.00
		SCAN_ANGLE=0.00
		SCAN_DIAGONAL=NOT_DIAGONAL
		MEAS_PRESET=TIME_PRESET
		MEAS_TIME=10.000
		MEAS_UNIT=GY
		PRESSURE=1013.25
		TEMPERATURE=20.00
		NORM_TEMPERATURE=20.00
		CORRECTION_FACTOR=1.0000
		CORRECTIONS=AIR_DENSITY_CORR;
		BEGIN_DATA
			-30.00		82.752E-03
			-15.00		81.074E-03
			15.00		84.255E-03
			30.00		83.103E-03
		END_DATA
	END_SCAN  3
	BEGIN_SCAN  4
		TASK_NAME=MODE_INTERVAL
		PROGRAM=BeamAdjust 1.2
		MEAS_DATE=07-Oct-2010 14:29:15
		LINAC=A4
		MODALITY=X
		INPLANE_AXIS_DIR=TARGET_GUN
		CROSSPLANE_AXIS_DIR=LEFT_RIGHT
		DEPTH_AXIS_DIR=UP_DOWN
		ENERGY=6.00
		SSD=950.00
		WEDGE=None
		FIELD_INPLANE=100.00
		FIELD_CROSSPLANE=100.00
		FIELD_TYPE=RECTANGULAR
		GANTRY=0.00
		GANTRY_UPRIGHT_POSITION=0
		GANTRY_ROTATION=CW
		COLL_ANGLE=90.00
		COLL_OFFSET_INPLANE=0.00
		COLL_OFFSET_CROSSPLANE=0.00
		SCAN_DEVICE=STARCHECK
		ELECTROMETER=2D_ARRAY_INTERFACE
		DETECTOR=STARCHECK
		SCAN_CURVETYPE=CROSSPLANE_PROFILE
		SCAN_DEPTH=0.00
		SCAN_OFFAXIS_INPLANE=0.00
		SCAN_ANGLE=0.00
		SCAN_DIAGONAL=NOT_DIAGONAL
		MEAS_PRESET=TIME_PRESET
		MEAS_TIME=10.000
		MEAS_UNIT=GY
		PRESSURE=1013.25
		TEMPERATURE=20.00
		NORM_TEMPERATURE=20.00
		CORRECTION_FACTOR=1.0000
		CORRECTIONS=AIR_DENSITY_CORR;
		BEGIN_DATA
			-126.00		6.2544E-03
			-123.00		7.1023E-03
			-120.00		7.6534E-03
			-117.00		7.9018E-03
			-114.00		8.5422E-03
			-111.00		9.2693E-03
			-108.00		9.8851E-03
			-105.00		10.588E-03
			-102.00		11.529E-03
			-99.00		12.449E-03
			-96.00		13.716E-03
			-93.00		14.971E-03
			-90.00		16.515E-03
			-87.00		17.764E-03
			-84.00		19.869E-03
			-81.00		21.835E-03
			-78.00		23.466E-03
			-75.00		26.359E-03
			-72.00		29.635E-03
			-69.00		33.754E-03
			-66.00		38.574E-03
			-63.00		44.725E-03
			-60.00		54.384E-03
			-57.00		72.007E-03
			-54.00		112.90E-03
			-51.00		287.30E-03
			-48.00		554.80E-03
			-45.00		617.46E-03
			-42.00		637.58E-03
			-39.00		650.28E-03
			-36.00		655.44E-03
			-33.00		656.50E-03
			-30.00		658.45E-03
			-27.00		660.78E-03
			-24.00		663.19E-03
			-21.00		663.58E-03
			-18.00		669.58E-03
			-15.00		669.91E-03
			-12.00		669.55E-03
			-9.00		672.29E-03
			-6.00		671.13E-03
			0.00		670.08E-03
			6.00		672.93E-03
			9.00		672.31E-03
			12.00		669.51E-03
			15.00		668.47E-03
			18.00		668.24E-03
			21.00		666.23E-03
			24.00		662.59E-03
			27.00		666.59E-03
			30.00		664.90E-03
			33.00		662.42E-03
			36.00		658.87E-03
			39.00		652.95E-03
			42.00		641.62E-03
			45.00		617.39E-03
			48.00		530.00E-03
			51.00		236.42E-03
			54.00		102.34E-03
			57.00		68.391E-03
			60.00		53.187E-03
			63.00		44.144E-03
			66.00		37.367E-03
			69.00		32.901E-03
			72.00		29.340E-03
			75.00		26.055E-03
			78.00		23.486E-03
			81.00		21.601E-03
			84.00		19.345E-03
			87.00		17.549E-03
			90.00		16.684E-03
			93.00		14.704E-03
			96.00		12.864E-03
			99.00		12.679E-03
			102.00		11.683E-03
			105.00		10.293E-03
			108.00		10.402E-03
			111.00		8.9102E-03
			114.00		8.1979E-03
			117.00		7.8217E-03
			120.00		7.0556E-03
			123.00		6.9678E-03
			126.00		6.5588E-03
		END_DATA
	END_SCAN  4
	BEGIN_SCAN  5
		TASK_NAME=MODE_INTERVAL
		PROGRAM=BeamAdjust 1.2
		MEAS_DATE=07-Oct-2010 14:29:15
		LINAC=A4
		MODALITY=X
		INPLANE_AXIS_DIR=TARGET_GUN
		CROSSPLANE_AXIS_DIR=LEFT_RIGHT
		DEPTH_AXIS_DIR=UP_DOWN
		ENERGY=6.00
		SSD=950.00
		WEDGE=None
		FIELD_INPLANE=100.00
		FIELD_CROSSPLANE=100.00
		FIELD_TYPE=RECTANGULAR
		GANTRY=0.00
		GANTRY_UPRIGHT_POSITION=0
		GANTRY_ROTATION=CW
		COLL_ANGLE=90.00
		COLL_OFFSET_INPLANE=0.00
		COLL_OFFSET_CROSSPLANE=0.00
		SCAN_DEVICE=STARCHECK
		ELECTROMETER=2D_ARRAY_INTERFACE
		DETECTOR=STARCHECK
		SCAN_CURVETYPE=CROSSPLANE_PROFILE
		SCAN_DEPTH=0.00
		SCAN_OFFAXIS_INPLANE=50.00
		SCAN_ANGLE=0.00
		SCAN_DIAGONAL=NOT_DIAGONAL
		MEAS_PRESET=TIME_PRESET
		MEAS_TIME=10.000
		MEAS_UNIT=GY
		PRESSURE=1013.25
		TEMPERATURE=20.00
		NORM_TEMPERATURE=20.00
		CORRECTION_FACTOR=1.0000
		CORRECTIONS=AIR_DENSITY_CORR;
		BEGIN_DATA
			-30.00		616.93E-03
			-15.00		623.41E-03
			15.00		620.60E-03
			30.00		616.65E-03
		END_DATA
	END_SCAN  5
	BEGIN_SCAN  6
		TASK_NAME=MODE_INTERVAL
		PROGRAM=BeamAdjust 1.2
		MEAS_DATE=07-Oct-2010 14:29:15
		LINAC=A4
		MODALITY=X
		INPLANE_AXIS_DIR=TARGET_GUN
		CROSSPLANE_AXIS_DIR=LEFT_RIGHT
		DEPTH_AXIS_DIR=UP_DOWN
		ENERGY=6.00
		SSD=950.00
		WEDGE=None
		FIELD_INPLANE=100.00
		FIELD_CROSSPLANE=100.00
		FIELD_TYPE=RECTANGULAR
		GANTRY=0.00
		GANTRY_UPRIGHT_POSITION=0
		GANTRY_ROTATION=CW
		COLL_ANGLE=90.00
		COLL_OFFSET_INPLANE=0.00
		COLL_OFFSET_CROSSPLANE=0.00
		SCAN_DEVICE=STARCHECK
		ELECTROMETER=2D_ARRAY_INTERFACE
		DETECTOR=STARCHECK
		SCAN_CURVETYPE=CROSSPLANE_PROFILE
		SCAN_DEPTH=0.00
		SCAN_OFFAXIS_INPLANE=100.00
		SCAN_ANGLE=0.00
		SCAN_DIAGONAL=NOT_DIAGONAL
		MEAS_PRESET=TIME_PRESET
		MEAS_TIME=10.000
		MEAS_UNIT=GY
		PRESSURE=1013.25
		TEMPERATURE=20.00
		NORM_TEMPERATURE=20.00
		CORRECTION_FACTOR=1.0000
		CORRECTIONS=AIR_DENSITY_CORR;
		BEGIN_DATA
			-60.00		11.071E-03
			-30.00		17.053E-03
			30.00		16.977E-03
			60.00		10.299E-03
		END_DATA
	END_SCAN  6
	BEGIN_SCAN  7
		TASK_NAME=MODE_INTERVAL
		PROGRAM=BeamAdjust 1.2
		MEAS_DATE=07-Oct-2010 14:29:15
		LINAC=A4
		MODALITY=X
		INPLANE_AXIS_DIR=TARGET_GUN
		CROSSPLANE_AXIS_DIR=LEFT_RIGHT
		DEPTH_AXIS_DIR=UP_DOWN
		ENERGY=6.00
		SSD=950.00
		WEDGE=None
		FIELD_INPLANE=100.00
		FIELD_CROSSPLANE=100.00
		FIELD_TYPE=RECTANGULAR
		GANTRY=0.00
		GANTRY_UPRIGHT_POSITION=0
		GANTRY_ROTATION=CW
		COLL_ANGLE=90.00
		COLL_OFFSET_INPLANE=0.00
		COLL_OFFSET_CROSSPLANE=0.00
		SCAN_DEVICE=STARCHECK
		ELECTROMETER=2D_ARRAY_INTERFACE
		DETECTOR=STARCHECK
		SCAN_CURVETYPE=CROSSPLANE_PROFILE
		SCAN_DEPTH=0.00
		SCAN_OFFAXIS_INPLANE=130.00
		SCAN_ANGLE=0.00
		SCAN_DIAGONAL=NOT_DIAGONAL
		MEAS_PRESET=TIME_PRESET
		MEAS_TIME=10.000
		MEAS_UNIT=GY
		PRESSURE=1013.25
		TEMPERATURE=20.00
		NORM_TEMPERATURE=20.00
		CORRECTION_FACTOR=1.0000
		CORRECTIONS=AIR_DENSITY_CORR;
		BEGIN_DATA
			-130.00		1.9588E-03
			-80.00		4.0036E-03
			-40.00		8.1801E-03
			40.00		7.6831E-03
			80.00		4.4479E-03
			130.00		2.9878E-03
		END_DATA
	END_SCAN  7
	BEGIN_SCAN  8
		TASK_NAME=MODE_INTERVAL
		PROGRAM=BeamAdjust 1.2
		MEAS_DATE=07-Oct-2010 14:29:15
		LINAC=A4
		MODALITY=X
		INPLANE_AXIS_DIR=TARGET_GUN
		CROSSPLANE_AXIS_DIR=LEFT_RIGHT
		DEPTH_AXIS_DIR=UP_DOWN
		ENERGY=6.00
		SSD=950.00
		WEDGE=None
		FIELD_INPLANE=100.00
		FIELD_CROSSPLANE=100.00
		FIELD_TYPE=RECTANGULAR
		GANTRY=0.00
		GANTRY_UPRIGHT_POSITION=0
		GANTRY_ROTATION=CW
		COLL_ANGLE=90.00
		COLL_OFFSET_INPLANE=0.00
		COLL_OFFSET_CROSSPLANE=0.00
		SCAN_DEVICE=STARCHECK
		ELECTROMETER=2D_ARRAY_INTERFACE
		DETECTOR=STARCHECK
		SCAN_CURVETYPE=INPLANE_PROFILE
		SCAN_DEPTH=0.00
		SCAN_OFFAXIS_CROSSPLANE=-130.00
		SCAN_ANGLE=0.00
		SCAN_DIAGONAL=NOT_DIAGONAL
		MEAS_PRESET=TIME_PRESET
		MEAS_TIME=10.000
		MEAS_UNIT=GY
		PRESSURE=1013.25
		TEMPERATURE=20.00
		NORM_TEMPERATURE=20.00
		CORRECTION_FACTOR=1.0000
		CORRECTIONS=AIR_DENSITY_CORR;
		BEGIN_DATA
			-130.00		2.2089E-03
			-125.00		2.4111E-03
			-120.00		2.7213E-03
			-115.00		2.8881E-03
			-110.00		2.9812E-03
			-105.00		3.2614E-03
			-100.00		3.4442E-03
			-95.00		4.3233E-03
			-90.00		4.4719E-03
			-85.00		3.9671E-03
			-80.00		4.0680E-03
			-75.00		4.8834E-03
			-70.00		4.4538E-03
			-65.00		4.4768E-03
			-60.00		4.8907E-03
			-55.00		5.7716E-03
			-50.00		3.7898E-03
			-45.00		4.2796E-03
			-40.00		4.5386E-03
			-35.00		4.8051E-03
			-30.00		5.4279E-03
			-25.00		4.8109E-03
			-20.00		5.0321E-03
			-15.00		4.8284E-03
			-10.00		5.2463E-03
			-5.00		5.8439E-03
			0.00		5.2991E-03
			5.00		6.5607E-03
			10.00		5.9485E-03
			15.00		5.4054E-03
			20.00		5.5007E-03
			25.00		5.4364E-03
			30.00		5.0675E-03
			35.00		5.7073E-03
			40.00		4.8430E-03
			45.00		4.7609E-03
			50.00		4.9834E-03
			55.00		4.7633E-03
			60.00		4.6607E-03
			65.00		3.9646E-03
			70.00		3.6670E-03
			75.00		4.0134E-03
			80.00		3.7246E-03
			85.00		3.2149E-03
			90.00		3.6808E-03
			95.00		2.9061E-03
			100.00		2.9891E-03
			105.00		2.7402E-03
			110.00		2.3979E-03
			115.00		2.6574E-03
			120.00		2.4992E-03
			125.00		2.3435E-03
			130.00		1.9588E-03
		END_DATA
	END_SCAN  8
	BEGIN_SCAN  9
		TASK_NAME=MODE_INTERVAL
		PROGRAM=BeamAdjust 1.2
		MEAS_DATE=07-Oct-2010 14:29:15
		LINAC=A4
		MODALITY=X
		INPLANE_AXIS_DIR=TARGET_GUN
		CROSSPLANE_AXIS_DIR=LEFT_RIGHT
		DEPTH_AXIS_DIR=UP_DOWN
		ENERGY=6.00
		SSD=950.00
		WEDGE=None
		FIELD_INPLANE=100.00
		FIELD_CROSSPLANE=100.00
		FIELD_TYPE=RECTANGULAR
		GANTRY=0.00
		GANTRY_UPRIGHT_POSITION=0
		GANTRY_ROTATION=CW
		COLL_ANGLE=90.00
		COLL_OFFSET_INPLANE=0.00
		COLL_OFFSET_CROSSPLANE=0.00
		SCAN_DEVICE=STARCHECK
		ELECTROMETER=2D_ARRAY_INTERFACE
		DETECTOR=STARCHECK
		SCAN_CURVETYPE=INPLANE_PROFILE
		SCAN_DEPTH=0.00
		SCAN_OFFAXIS_CROSSPLANE=-100.00
		SCAN_ANGLE=0.00
		SCAN_DIAGONAL=NOT_DIAGONAL
		MEAS_PRESET=TIME_PRESET
		MEAS_TIME=10.000
		MEAS_UNIT=GY
		PRESSURE=1013.25
		TEMPERATURE=20.00
		NORM_TEMPERATURE=20.00
		CORRECTION_FACTOR=1.0000
		CORRECTIONS=AIR_DENSITY_CORR;
		BEGIN_DATA
			-60.00		7.5525E-03
			-30.00		10.080E-03
			30.00		10.480E-03
			60.00		7.9810E-03
		END_DATA
	END_SCAN  9
	BEGIN_SCAN  10
		TASK_NAME=MODE_INTERVAL
		PROGRAM=BeamAdjust 1.2
		MEAS_DATE=07-Oct-2010 14:29:15
		LINAC=A4
		MODALITY=X
		INPLANE_AXIS_DIR=TARGET_GUN
		CROSSPLANE_AXIS_DIR=LEFT_RIGHT
		DEPTH_AXIS_DIR=UP_DOWN
		ENERGY=6.00
		SSD=950.00
		WEDGE=None
		FIELD_INPLANE=100.00
		FIELD_CROSSPLANE=100.00
		FIELD_TYPE=RECTANGULAR
		GANTRY=0.00
		GANTRY_UPRIGHT_POSITION=0
		GANTRY_ROTATION=CW
		COLL_ANGLE=90.00
		COLL_OFFSET_INPLANE=0.00
		COLL_OFFSET_CROSSPLANE=0.00
		SCAN_DEVICE=STARCHECK
		ELECTROMETER=2D_ARRAY_INTERFACE
		DETECTOR=STARCHECK
		SCAN_CURVETYPE=INPLANE_PROFILE
		SCAN_DEPTH=0.00
		SCAN_OFFAXIS_CROSSPLANE=-50.00
		SCAN_ANGLE=0.00
		SCAN_DIAGONAL=NOT_DIAGONAL
		MEAS_PRESET=TIME_PRESET
		MEAS_TIME=10.000
		MEAS_UNIT=GY
		PRESSURE=1013.25
		TEMPERATURE=20.00
		NORM_TEMPERATURE=20.00
		CORRECTION_FACTOR=1.0000
		CORRECTIONS=AIR_DENSITY_CORR;
		BEGIN_DATA
			-30.00		391.67E-03
			-15.00		390.34E-03
			15.00		381.43E-03
			30.00		372.27E-03
		END_DATA
	END_SCAN  10
	BEGIN_SCAN  11
		TASK_NAME=MODE_INTERVAL
		PROGRAM=BeamAdjust 1.2
		MEAS_DATE=07-Oct-2010 14:29:15
		LINAC=A4
		MODALITY=X
		INPLANE_AXIS_DIR=TARGET_GUN
		CROSSPLANE_AXIS_DIR=LEFT_RIGHT
		DEPTH_AXIS_DIR=UP_DOWN
		ENERGY=6.00
		SSD=950.00
		WEDGE=None
		FIELD_INPLANE=100.00
		FIELD_CROSSPLANE=100.00
		FIELD_TYPE=RECTANGULAR
		GANTRY=0.00
		GANTRY_UPRIGHT_POSITION=0
		GANTRY_ROTATION=CW
		COLL_ANGLE=90.00
		COLL_OFFSET_INPLANE=0.00
		COLL_OFFSET_CROSSPLANE=0.00
		SCAN_DEVICE=STARCHECK
		ELECTROMETER=2D_ARRAY_INTERFACE
		DETECTOR=STARCHECK
		SCAN_CURVETYPE=INPLANE_PROFILE
		SCAN_DEPTH=0.00
		SCAN_OFFAXIS_CROSSPLANE=0.00
		SCAN_ANGLE=0.00
		SCAN_DIAGONAL=NOT_DIAGONAL
		MEAS_PRESET=TIME_PRESET
		MEAS_TIME=10.000
		MEAS_UNIT=GY
		PRESSURE=1013.25
		TEMPERATURE=20.00
		NORM_TEMPERATURE=20.00
		CORRECTION_FACTOR=1.0000
		CORRECTIONS=AIR_DENSITY_CORR;
		BEGIN_DATA
			-126.00		8.2089E-03
			-123.00		8.0017E-03
			-120.00		8.9145E-03
			-117.00		10.180E-03
			-114.00		10.209E-03
			-111.00		11.187E-03
			-108.00		12.114E-03
			-105.00		12.528E-03
			-102.00		14.201E-03
			-99.00		14.634E-03
			-96.00		15.567E-03
			-93.00		17.860E-03
			-90.00		18.675E-03
			-87.00		20.619E-03
			-84.00		22.107E-03
			-81.00		24.083E-03
			-78.00		26.076E-03
			-75.00		27.992E-03
			-72.00		30.506E-03
			-69.00		33.265E-03
			-66.00		36.753E-03
			-63.00		40.791E-03
			-60.00		46.302E-03
			-57.00		53.247E-03
			-54.00		64.079E-03
			-51.00		84.168E-03
			-48.00		141.23E-03
			-45.00		332.91E-03
			-42.00		568.49E-03
			-39.00		626.30E-03
			-36.00		644.92E-03
			-33.00		653.92E-03
			-30.00		661.12E-03
			-27.00		664.11E-03
			-24.00		664.74E-03
			-21.00		664.42E-03
			-18.00		669.81E-03
			-15.00		667.17E-03
			-12.00		670.32E-03
			-9.00		672.79E-03
			-6.00		671.83E-03
			0.00		670.08E-03
			6.00		671.79E-03
			9.00		671.16E-03
			12.00		672.26E-03
			15.00		672.85E-03
			18.00		669.39E-03
			21.00		667.13E-03
			24.00		663.23E-03
			27.00		665.44E-03
			30.00		661.91E-03
			33.00		661.17E-03
			36.00		661.69E-03
			39.00		654.22E-03
			42.00		651.10E-03
			45.00		645.72E-03
			48.00		628.07E-03
			51.00		590.79E-03
			54.00		408.68E-03
			57.00		175.07E-03
			60.00		94.271E-03
			63.00		67.363E-03
			66.00		55.685E-03
			69.00		47.714E-03
			72.00		41.764E-03
			75.00		37.313E-03
			78.00		32.958E-03
			81.00		30.387E-03
			84.00		28.110E-03
			87.00		25.876E-03
			90.00		23.741E-03
			93.00		21.615E-03
			96.00		20.154E-03
			99.00		18.371E-03
			102.00		16.488E-03
			105.00		15.089E-03
			108.00		14.787E-03
			111.00		13.214E-03
			114.00		12.678E-03
			117.00		11.394E-03
			120.00		10.836E-03
			123.00		9.8847E-03
			126.00		8.8687E-03
		END_DATA
	END_SCAN  11
	BEGIN_SCAN  12
		TASK_NAME=MODE_INTERVAL
		PROGRAM=BeamAdjust 1.2
		MEAS_DATE=07-Oct-2010 14:29:15
		LINAC=A4
		MODALITY=X
		INPLANE_AXIS_DIR=TARGET_GUN
		CROSSPLANE_AXIS_DIR=LEFT_RIGHT
		DEPTH_AXIS_DIR=UP_DOWN
		ENERGY=6.00
		SSD=950.00
		WEDGE=None
		FIELD_INPLANE=100.00
		FIELD_CROSSPLANE=100.00
		FIELD_TYPE=RECTANGULAR
		GANTRY=0.00
		GANTRY_UPRIGHT_POSITION=0
		GANTRY_ROTATION=CW
		COLL_ANGLE=90.00
		COLL_OFFSET_INPLANE=0.00
		COLL_OFFSET_CROSSPLANE=0.00
		SCAN_DEVICE=STARCHECK
		ELECTROMETER=2D_ARRAY_INTERFACE
		DETECTOR=STARCHECK
		SCAN_CURVETYPE=INPLANE_PROFILE
		SCAN_DEPTH=0.00
		SCAN_OFFAXIS_CROSSPLANE=50.00
		SCAN_ANGLE=0.00
		SCAN_DIAGONAL=NOT_DIAGONAL
		MEAS_PRESET=TIME_PRESET
		MEAS_TIME=10.000
		MEAS_UNIT=GY
		PRESSURE=1013.25
		TEMPERATURE=20.00
		NORM_TEMPERATURE=20.00
		CORRECTION_FACTOR=1.0000
		CORRECTIONS=AIR_DENSITY_CORR;
		BEGIN_DATA
			-30.00		327.81E-03
			-15.00		339.24E-03
			15.00		348.87E-03
			30.00		351.24E-03
		END_DATA
	END_SCAN  12
	BEGIN_SCAN  13
		TASK_NAME=MODE_INTERVAL
		PROGRAM=BeamAdjust 1.2
		MEAS_DATE=07-Oct-2010 14:29:15
		LINAC=A4
		MODALITY=X
		INPLANE_AXIS_DIR=TARGET_GUN
		CROSSPLANE_AXIS_DIR=LEFT_RIGHT
		DEPTH_AXIS_DIR=UP_DOWN
		ENERGY=6.00
		SSD=950.00
		WEDGE=None
		FIELD_INPLANE=100.00
		FIELD_CROSSPLANE=100.00
		FIELD_TYPE=RECTANGULAR
		GANTRY=0.00
		GANTRY_UPRIGHT_POSITION=0
		GANTRY_ROTATION=CW
		COLL_ANGLE=90.00
		COLL_OFFSET_INPLANE=0.00
		COLL_OFFSET_CROSSPLANE=0.00
		SCAN_DEVICE=STARCHECK
		ELECTROMETER=2D_ARRAY_INTERFACE
		DETECTOR=STARCHECK
		SCAN_CURVETYPE=INPLANE_PROFILE
		SCAN_DEPTH=0.00
		SCAN_OFFAXIS_CROSSPLANE=100.00
		SCAN_ANGLE=0.00
		SCAN_DIAGONAL=NOT_DIAGONAL
		MEAS_PRESET=TIME_PRESET
		MEAS_TIME=10.000
		MEAS_UNIT=GY
		PRESSURE=1013.25
		TEMPERATURE=20.00
		NORM_TEMPERATURE=20.00
		CORRECTION_FACTOR=1.0000
		CORRECTIONS=AIR_DENSITY_CORR;
		BEGIN_DATA
			-60.00		7.2066E-03
			-30.00		10.021E-03
			30.00		10.421E-03
			60.00		7.8405E-03
		END_DATA
	END_SCAN  13
	BEGIN_SCAN  14
		TASK_NAME=MODE_INTERVAL
		PROGRAM=BeamAdjust 1.2
		MEAS_DATE=07-Oct-2010 14:29:15
		LINAC=A4
		MODALITY=X
		INPLANE_AXIS_DIR=TARGET_GUN
		CROSSPLANE_AXIS_DIR=LEFT_RIGHT
		DEPTH_AXIS_DIR=UP_DOWN
		ENERGY=6.00
		SSD=950.00
		WEDGE=None
		FIELD_INPLANE=100.00
		FIELD_CROSSPLANE=100.00
		FIELD_TYPE=RECTANGULAR
		GANTRY=0.00
		GANTRY_UPRIGHT_POSITION=0
		GANTRY_ROTATION=CW
		COLL_ANGLE=90.00
		COLL_OFFSET_INPLANE=0.00
		COLL_OFFSET_CROSSPLANE=0.00
		SCAN_DEVICE=STARCHECK
		ELECTROMETER=2D_ARRAY_INTERFACE
		DETECTOR=STARCHECK
		SCAN_CURVETYPE=INPLANE_PROFILE
		SCAN_DEPTH=0.00
		SCAN_OFFAXIS_CROSSPLANE=130.00
		SCAN_ANGLE=0.00
		SCAN_DIAGONAL=NOT_DIAGONAL
		MEAS_PRESET=TIME_PRESET
		MEAS_TIME=10.000
		MEAS_UNIT=GY
		PRESSURE=1013.25
		TEMPERATURE=20.00
		NORM_TEMPERATURE=20.00
		CORRECTION_FACTOR=1.0000
		CORRECTIONS=AIR_DENSITY_CORR;
		BEGIN_DATA
			-130.00		1.8477E-03
			-125.00		1.9987E-03
			-120.00		2.2763E-03
			-115.00		2.0068E-03
			-110.00		2.4273E-03
			-105.00		2.3366E-03
			-100.00		2.6657E-03
			-95.00		2.5072E-03
			-90.00		2.2541E-03
			-85.00		3.4657E-03
			-80.00		3.6400E-03
			-75.00		3.3218E-03
			-70.00		3.4901E-03
			-65.00		3.8772E-03
			-60.00		4.0173E-03
			-55.00		4.1081E-03
			-50.00		3.6860E-03
			-45.00		4.7976E-03
			-40.00		4.8817E-03
			-35.00		4.9356E-03
			-30.00		5.1004E-03
			-25.00		4.7531E-03
			-20.00		5.0694E-03
			-15.00		4.9516E-03
			-10.00		5.1314E-03
			-5.00		5.2406E-03
			0.00		5.9259E-03
			5.00		5.5890E-03
			10.00		5.9081E-03
			15.00		5.0466E-03
			20.00		5.3601E-03
			25.00		5.7149E-03
			30.00		5.0014E-03
			35.00		5.3027E-03
			40.00		5.4474E-03
			45.00		5.1848E-03
			50.00		4.8693E-03
			55.00		5.6359E-03
			60.00		5.0472E-03
			65.00		4.6591E-03
			70.00		4.1731E-03
			75.00		4.5032E-03
			80.00		4.2098E-03
			85.00		3.7567E-03
			90.00		4.0117E-03
			95.00		3.5582E-03
			100.00		3.5541E-03
			105.00		2.9180E-03
			110.00		3.0596E-03
			115.00		2.8301E-03
			120.00		3.1784E-03
			125.00		2.2358E-03
			130.00		2.9878E-03
		END_DATA
	END_SCAN  14
	BEGIN_SCAN  15
		TASK_NAME=MODE_INTERVAL
		PROGRAM=BeamAdjust 1.2
		MEAS_DATE=07-Oct-2010 14:29:15
		LINAC=A4
		MODALITY=X
		INPLANE_AXIS_DIR=TARGET_GUN
		CROSSPLANE_AXIS_DIR=LEFT_RIGHT
		DEPTH_AXIS_DIR=UP_DOWN
		ENERGY=6.00
		SSD=950.00
		WEDGE=None
		FIELD_INPLANE=100.00
		FIELD_CROSSPLANE=100.00
		FIELD_TYPE=RECTANGULAR
		GANTRY=0.00
		GANTRY_UPRIGHT_POSITION=0
		GANTRY_ROTATION=CW
		COLL_ANGLE=90.00
		COLL_OFFSET_INPLANE=0.00
		COLL_OFFSET_CROSSPLANE=0.00
		SCAN_DEVICE=STARCHECK
		ELECTROMETER=2D_ARRAY_INTERFACE
		DETECTOR=STARCHECK
		SCAN_CURVETYPE=INPLANE_PROFILE
		SCAN_DEPTH=0.00
		SCAN_OFFAXIS_CROSSPLANE=0.00
		SCAN_ANGLE=0.00
		SCAN_DIAGONAL=FIRST_DIAGONAL
		MEAS_PRESET=TIME_PRESET
		MEAS_TIME=10.000
		MEAS_UNIT=GY
		PRESSURE=1013.25
		TEMPERATURE=20.00
		NORM_TEMPERATURE=20.00
		CORRECTION_FACTOR=1.0000
		CORRECTIONS=AIR_DENSITY_CORR;
		BEGIN_DATA
			-172.40		2.9838E-03
			-169.40		2.5848E-03
			-166.40		3.2543E-03
			-163.40		3.6345E-03
			-160.40		3.3060E-03
			-157.40		3.3823E-03
			-154.40		3.8676E-03
			-151.40		3.4877E-03
			-148.40		4.3179E-03
			-145.40		4.5955E-03
			-142.40		4.9474E-03
			-139.40		5.5331E-03
			-136.40		5.5135E-03
			-133.40		6.1566E-03
			-130.40		7.0355E-03
			-127.40		6.6227E-03
			-124.40		7.6970E-03
			-121.40		8.0432E-03
			-118.40		8.6734E-03
			-115.40		9.5453E-03
			-112.40		10.164E-03
			-109.40		11.398E-03
			-106.40		12.370E-03
			-103.40		12.944E-03
			-100.40		14.006E-03
			-97.40		16.163E-03
			-94.40		17.597E-03
			-91.40		19.720E-03
			-88.40		21.887E-03
			-85.40		24.245E-03
			-82.40		27.475E-03
			-79.40		30.464E-03
			-76.40		35.701E-03
			-73.40		45.778E-03
			-70.40		67.076E-03
			-67.40		134.57E-03
			-64.40		278.51E-03
			-61.40		436.18E-03
			-58.40		549.57E-03
			-55.40		606.63E-03
			-52.40		629.14E-03
			-49.40		640.45E-03
			-46.40		646.26E-03
			-43.40		650.67E-03
			-40.40		654.25E-03
			-37.40		659.90E-03
			-34.40		660.29E-03
			-31.40		662.30E-03
			-28.40		662.02E-03
			-25.40		665.00E-03
			-22.40		665.16E-03
			-19.40		664.84E-03
			-16.40		667.44E-03
			-13.40		671.13E-03
			0.00		670.08E-03
			13.40		674.45E-03
			16.40		671.34E-03
			19.40		670.24E-03
			22.40		668.35E-03
			25.40		667.22E-03
			28.40		666.71E-03
			31.40		664.23E-03
			34.40		661.51E-03
			37.40		664.76E-03
			40.40		662.48E-03
			43.40		659.48E-03
			46.40		658.63E-03
			49.40		653.64E-03
			52.40		651.13E-03
			55.40		641.38E-03
			58.40		633.91E-03
			61.40		618.16E-03
			64.40		579.71E-03
			67.40		487.53E-03
			70.40		326.07E-03
			73.40		152.46E-03
			76.40		68.941E-03
			79.40		45.993E-03
			82.40		35.770E-03
			85.40		30.030E-03
			88.40		26.719E-03
			91.40		23.107E-03
			94.40		20.698E-03
			97.40		18.791E-03
			100.40		17.684E-03
			103.40		15.560E-03
			106.40		14.343E-03
			109.40		13.229E-03
			112.40		11.469E-03
			115.40		10.382E-03
			118.40		9.7564E-03
			121.40		8.7781E-03
			124.40		8.2133E-03
			127.40		7.8377E-03
			130.40		7.5737E-03
			133.40		6.2951E-03
			136.40		5.4163E-03
			139.40		5.2317E-03
			142.40		5.1080E-03
			145.40		4.6004E-03
			148.40		4.4106E-03
			151.40		3.7860E-03
			154.40		3.4814E-03
			157.40		3.3024E-03
			160.40		2.5512E-03
			163.40		2.4309E-03
			166.40		2.5985E-03
			169.40		2.4538E-03
			172.40		2.2400E-03
		END_DATA
	END_SCAN  15
	BEGIN_SCAN  16
		TASK_NAME=MODE_INTERVAL
		PROGRAM=BeamAdjust 1.2
		MEAS_DATE=07-Oct-2010 14:29:15
		LINAC=A4
		MODALITY=X
		INPLANE_AXIS_DIR=GUN_TARGET
		CROSSPLANE_AXIS_DIR=LEFT_RIGHT
		DEPTH_AXIS_DIR=UP_DOWN
		ENERGY=6.00
		SSD=950.00
		WEDGE=None
		FIELD_INPLANE=100.00
		FIELD_CROSSPLANE=100.00
		FIELD_TYPE=RECTANGULAR
		GANTRY=0.00
		GANTRY_UPRIGHT_POSITION=0
		GANTRY_ROTATION=CW
		COLL_ANGLE=90.00
		COLL_OFFSET_INPLANE=0.00
		COLL_OFFSET_CROSSPLANE=0.00
		SCAN_DEVICE=STARCHECK
		ELECTROMETER=2D_ARRAY_INTERFACE
		DETECTOR=STARCHECK
		SCAN_CURVETYPE=INPLANE_PROFILE
		SCAN_DEPTH=0.00
		SCAN_OFFAXIS_CROSSPLANE=0.00
		SCAN_ANGLE=0.00
		SCAN_DIAGONAL=SECOND_DIAGONAL
		MEAS_PRESET=TIME_PRESET
		MEAS_TIME=10.000
		MEAS_UNIT=GY
		PRESSURE=1013.25
		TEMPERATURE=20.00
		NORM_TEMPERATURE=20.00
		CORRECTION_FACTOR=1.0000
		CORRECTIONS=AIR_DENSITY_CORR;
		BEGIN_DATA
			-172.40		2.2674E-03
			-169.40		2.6946E-03
			-166.40		2.3005E-03
			-163.40		2.5308E-03
			-160.40		2.7349E-03
			-157.40		3.3004E-03
			-154.40		3.4577E-03
			-151.40		3.5709E-03
			-148.40		4.2109E-03
			-145.40		4.0743E-03
			-142.40		4.3752E-03
			-139.40		5.0855E-03
			-136.40		5.3330E-03
			-133.40		6.4411E-03
			-130.40		6.5796E-03
			-127.40		7.0298E-03
			-124.40		7.8029E-03
			-121.40		8.0452E-03
			-118.40		8.9068E-03
			-115.40		8.8699E-03
			-112.40		9.5193E-03
			-109.40		11.178E-03
			-106.40		12.149E-03
			-103.40		12.901E-03
			-100.40		14.845E-03
			-97.40		15.714E-03
			-94.40		16.956E-03
			-91.40		19.578E-03
			-88.40		20.438E-03
			-85.40		23.111E-03
			-82.40		26.122E-03
			-79.40		30.230E-03
			-76.40		35.039E-03
			-73.40		43.554E-03
			-70.40		61.432E-03
			-67.40		117.56E-03
			-64.40		260.84E-03
			-61.40		427.43E-03
			-58.40		550.70E-03
			-55.40		607.75E-03
			-52.40		634.60E-03
			-49.40		645.76E-03
			-46.40		651.58E-03
			-43.40		656.61E-03
			-40.40		658.91E-03
			-37.40		662.89E-03
			-34.40		663.18E-03
			-31.40		664.67E-03
			-28.40		668.19E-03
			-25.40		667.36E-03
			-22.40		665.70E-03
			-19.40		668.96E-03
			-16.40		669.66E-03
			-13.40		672.64E-03
			0.00		670.08E-03
			13.40		673.07E-03
			16.40		671.73E-03
			19.40		667.74E-03
			22.40		664.65E-03
			25.40		663.95E-03
			28.40		662.96E-03
			31.40		661.43E-03
			34.40		659.14E-03
			37.40		659.01E-03
			40.40		657.78E-03
			43.40		656.57E-03
			46.40		655.16E-03
			49.40		651.69E-03
			52.40		644.91E-03
			55.40		638.56E-03
			58.40		632.75E-03
			61.40		616.66E-03
			64.40		582.64E-03
			67.40		493.40E-03
			70.40		337.82E-03
			73.40		161.62E-03
			76.40		71.642E-03
			79.40		46.204E-03
			82.40		37.124E-03
			85.40		31.239E-03
			88.40		26.892E-03
			91.40		24.256E-03
			94.40		21.415E-03
			97.40		19.624E-03
			100.40		17.088E-03
			103.40		15.382E-03
			106.40		14.263E-03
			109.40		13.019E-03
			112.40		11.769E-03
			115.40		11.107E-03
			118.40		9.7926E-03
			121.40		9.1964E-03
			124.40		8.3622E-03
			127.40		7.6212E-03
			130.40		7.6936E-03
			133.40		6.9298E-03
			136.40		6.0660E-03
			139.40		6.6477E-03
			142.40		5.7341E-03
			145.40		5.3533E-03
			148.40		4.8726E-03
			151.40		4.2874E-03
			154.40		4.2992E-03
			157.40		3.9479E-03
			160.40		3.7332E-03
			163.40		3.9966E-03
			166.40		3.7305E-03
			169.40		2.7003E-03
			172.40		2.4973E-03
		END_DATA
	END_SCAN  16
END_SCAN_DATA
