BEGIN_SCAN_DATA
	FORMAT=CC-Export V1.9                  
	FILE_CREATION_DATE=07-Oct-2010 14:29:44
	LAST_MODIFIED=07-Oct-2010 14:29:44
	BEGIN_SCAN  1
		TASK_NAME=MODE_INTERVAL
		PROGRAM=BeamAdjust 1.2
		MEAS_DATE=07-Oct-2010 14:29:44
		LINAC=A4
		MODALITY=X
		INPLANE_AXIS_DIR=TARGET_GUN
		CROSSPLANE_AXIS_DIR=LEFT_RIGHT
		DEPTH_AXIS_DIR=UP_DOWN
		ENERGY=6.00
		SSD=950.00
		WEDGE=None
		FIELD_INPLANE=100.00
		FIELD_CROSSPLANE=100.00
		FIELD_TYPE=RECTANGULAR
		GANTRY=0.00
		GANTRY_UPRIGHT_POSITION=0
		GANTRY_ROTATION=CW
		COLL_ANGLE=90.00
		COLL_OFFSET_INPLANE=0.00
		COLL_OFFSET_CROSSPLANE=0.00
		SCAN_DEVICE=STARCHECK
		ELECTROMETER=2D_ARRAY_INTERFACE
		DETECTOR=STARCHECK
		SCAN_CURVETYPE=CROSSPLANE_PROFILE
		SCAN_DEPTH=0.00
		SCAN_OFFAXIS_INPLANE=-130.00
		SCAN_ANGLE=0.00
		SCAN_DIAGONAL=NOT_DIAGONAL
		MEAS_PRESET=TIME_PRESET
		MEAS_TIME=10.000
		MEAS_UNIT=GY
		PRESSURE=1013.25
		TEMPERATURE=20.00
		NORM_TEMPERATURE=20.00
		CORRECTION_FACTOR=1.0000
		CORRECTIONS=AIR_DENSITY_CORR;
		BEGIN_DATA
			-130.00		2.2906E-03
			-80.00		3.7548E-03
			-40.00		6.4034E-03
			40.00		5.9958E-03
			80.00		3.2717E-03
			130.00		1.7190E-03
		END_DATA
	END_SCAN  1
	BEGIN_SCAN  2
		TASK_NAME=MODE_INTERVAL
		PROGRAM=BeamAdjust 1.2
		MEAS_DATE=07-Oct-2010 14:29:44
		LINAC=A4
		MODALITY=X
		INPLANE_AXIS_DIR=TARGET_GUN
		CROSSPLANE_AXIS_DIR=LEFT_RIGHT
		DEPTH_AXIS_DIR=UP_DOWN
		ENERGY=6.00
		SSD=950.00
		WEDGE=None
		FIELD_INPLANE=100.00
		FIELD_CROSSPLANE=100.00
		FIELD_TYPE=RECTANGULAR
		GANTRY=0.00
		GANTRY_UPRIGHT_POSITION=0
		GANTRY_ROTATION=CW
		COLL_ANGLE=90.00
		COLL_OFFSET_INPLANE=0.00
		COLL_OFFSET_CROSSPLANE=0.00
		SCAN_DEVICE=STARCHECK
		ELECTROMETER=2D_ARRAY_INTERFACE
		DETECTOR=STARCHECK
		SCAN_CURVETYPE=CROSSPLANE_PROFILE
		SCAN_DEPTH=0.00
		SCAN_OFFAXIS_INPLANE=-100.00
		SCAN_ANGLE=0.00
		SCAN_DIAGONAL=NOT_DIAGONAL
		MEAS_PRESET=TIME_PRESET
		MEAS_TIME=10.000
		MEAS_UNIT=GY
		PRESSURE=1013.25
		TEMPERATURE=20.00
		NORM_TEMPERATURE=20.00
		CORRECTION_FACTOR=1.0000
		CORRECTIONS=AIR_DENSITY_CORR;
		BEGIN_DATA
			-60.00		8.9092E-03
			-30.00		12.760E-03
			30.00		13.093E-03
			60.00		8.7218E-03
		END_DATA
	END_SCAN  2
	BEGIN_SCAN  3
		TASK_NAME=MODE_INTERVAL
		PROGRAM=BeamAdjust 1.2
		MEAS_DATE=07-Oct-2010 14:29:44
		LINAC=A4
		MODALITY=X
		INPLANE_AXIS_DIR=TARGET_GUN
		CROSSPLANE_AXIS_DIR=LEFT_RIGHT
		DEPTH_AXIS_DIR=UP_DOWN
		ENERGY=6.00
		SSD=950.00
		WEDGE=None
		FIELD_INPLANE=100.00
		FIELD_CROSSPLANE=100.00
		FIELD_TYPE=RECTANGULAR
		GANTRY=0.00
		GANTRY_UPRIGHT_POSITION=0
		GANTRY_ROTATION=CW
		COLL_ANGLE=90.00
		COLL_OFFSET_INPLANE=0.00
		COLL_OFFSET_CROSSPLANE=0.00
		SCAN_DEVICE=STARCHECK
		ELECTROMETER=2D_ARRAY_INTERFACE
		DETECTOR=STARCHECK
		SCAN_CURVETYPE=CROSSPLANE_PROFILE
		SCAN_DEPTH=0.00
		SCAN_OFFAXIS_INPLANE=-50.00
		SCAN_ANGLE=0.00
		SCAN_DIAGONAL=NOT_DIAGONAL
		MEAS_PRESET=TIME_PRESET
		MEAS_TIME=10.000
		MEAS_UNIT=GY
		PRESSURE=1013.25
		TEMPERATURE=20.00
		NORM_TEMPERATURE=20.00
		CORRECTION_FACTOR=1.0000
		CORRECTIONS=AIR_DENSITY_CORR;
		BEGIN_DATA
			-30.00		78.524E-03
			-15.00		77.492E-03
			15.00		79.680E-03
			30.00		78.495E-03
		END_DATA
	END_SCAN  3
	BEGIN_SCAN  4
		TASK_NAME=MODE_INTERVAL
		PROGRAM=BeamAdjust 1.2
		MEAS_DATE=07-Oct-2010 14:29:44
		LINAC=A4
		MODALITY=X
		INPLANE_AXIS_DIR=TARGET_GUN
		CROSSPLANE_AXIS_DIR=LEFT_RIGHT
		DEPTH_AXIS_DIR=UP_DOWN
		ENERGY=6.00
		SSD=950.00
		WEDGE=None
		FIELD_INPLANE=100.00
		FIELD_CROSSPLANE=100.00
		FIELD_TYPE=RECTANGULAR
		GANTRY=0.00
		GANTRY_UPRIGHT_POSITION=0
		GANTRY_ROTATION=CW
		COLL_ANGLE=90.00
		COLL_OFFSET_INPLANE=0.00
		COLL_OFFSET_CROSSPLANE=0.00
		SCAN_DEVICE=STARCHECK
		ELECTROMETER=2D_ARRAY_INTERFACE
		DETECTOR=STARCHECK
		SCAN_CURVETYPE=CROSSPLANE_PROFILE
		SCAN_DEPTH=0.00
		SCAN_OFFAXIS_INPLANE=0.00
		SCAN_ANGLE=0.00
		SCAN_DIAGONAL=NOT_DIAGONAL
		MEAS_PRESET=TIME_PRESET
		MEAS_TIME=10.000
		MEAS_UNIT=GY
		PRESSURE=1013.25
		TEMPERATURE=20.00
		NORM_TEMPERATURE=20.00
		CORRECTION_FACTOR=1.0000
		CORRECTIONS=AIR_DENSITY_CORR;
		BEGIN_DATA
			-126.00		6.5081E-03
			-123.00		7.1143E-03
			-120.00		7.3397E-03
			-117.00		8.2354E-03
			-114.00		8.3986E-03
			-111.00		8.9600E-03
			-108.00		10.348E-03
			-105.00		10.500E-03
			-102.00		11.509E-03
			-99.00		12.505E-03
			-96.00		13.455E-03
			-93.00		14.940E-03
			-90.00		16.263E-03
			-87.00		17.667E-03
			-84.00		20.133E-03
			-81.00		21.375E-03
			-78.00		23.472E-03
			-75.00		26.605E-03
			-72.00		29.221E-03
			-69.00		33.225E-03
			-66.00		38.859E-03
			-63.00		44.496E-03
			-60.00		54.458E-03
			-57.00		71.839E-03
			-54.00		112.91E-03
			-51.00		287.10E-03
			-48.00		554.21E-03
			-45.00		617.72E-03
			-42.00		637.46E-03
			-39.00		649.80E-03
			-36.00		656.03E-03
			-33.00		656.60E-03
			-30.00		658.31E-03
			-27.00		661.38E-03
			-24.00		663.63E-03
			-21.00		663.66E-03
			-18.00		669.48E-03
			-15.00		670.05E-03
			-12.00		669.42E-03
			-9.00		672.34E-03
			-6.00		670.78E-03
			0.00		670.18E-03
			6.00		673.49E-03
			9.00		672.14E-03
			12.00		669.56E-03
			15.00		668.68E-03
			18.00		668.27E-03
			21.00		666.19E-03
			24.00		662.88E-03
			27.00		666.65E-03
			30.00		664.95E-03
			33.00		662.64E-03
			36.00		658.86E-03
			39.00		652.73E-03
			42.00		641.73E-03
			45.00		616.80E-03
			48.00		530.54E-03
			51.00		236.93E-03
			54.00		102.42E-03
			57.00		68.611E-03
			60.00		52.672E-03
			63.00		44.064E-03
			66.00		37.503E-03
			69.00		32.850E-03
			72.00		29.115E-03
			75.00		26.275E-03
			78.00		23.212E-03
			81.00		21.420E-03
			84.00		19.249E-03
			87.00		17.206E-03
			90.00		16.875E-03
			93.00		14.789E-03
			96.00		13.210E-03
			99.00		12.507E-03
			102.00		11.355E-03
			105.00		10.635E-03
			108.00		10.239E-03
			111.00		8.7606E-03
			114.00		8.4517E-03
			117.00		7.7374E-03
			120.00		6.7695E-03
			123.00		6.8522E-03
			126.00		6.4996E-03
		END_DATA
	END_SCAN  4
	BEGIN_SCAN  5
		TASK_NAME=MODE_INTERVAL
		PROGRAM=BeamAdjust 1.2
		MEAS_DATE=07-Oct-2010 14:29:44
		LINAC=A4
		MODALITY=X
		INPLANE_AXIS_DIR=TARGET_GUN
		CROSSPLANE_AXIS_DIR=LEFT_RIGHT
		DEPTH_AXIS_DIR=UP_DOWN
		ENERGY=6.00
		SSD=950.00
		WEDGE=None
		FIELD_INPLANE=100.00
		FIELD_CROSSPLANE=100.00
		FIELD_TYPE=RECTANGULAR
		GANTRY=0.00
		GANTRY_UPRIGHT_POSITION=0
		GANTRY_ROTATION=CW
		COLL_ANGLE=90.00
		COLL_OFFSET_INPLANE=0.00
		COLL_OFFSET_CROSSPLANE=0.00
		SCAN_DEVICE=STARCHECK
		ELECTROMETER=2D_ARRAY_INTERFACE
		DETECTOR=STARCHECK
		SCAN_CURVETYPE=CROSSPLANE_PROFILE
		SCAN_DEPTH=0.00
		SCAN_OFFAXIS_INPLANE=50.00
		SCAN_ANGLE=0.00
		SCAN_DIAGONAL=NOT_DIAGONAL
		MEAS_PRESET=TIME_PRESET
		MEAS_TIME=10.000
		MEAS_UNIT=GY
		PRESSURE=1013.25
		TEMPERATURE=20.00
		NORM_TEMPERATURE=20.00
		CORRECTION_FACTOR=1.0000
		CORRECTIONS=AIR_DENSITY_CORR;
		BEGIN_DATA
			-30.00		621.78E-03
			-15.00		628.03E-03
			15.00		626.80E-03
			30.00		621.89E-03
		END_DATA
	END_SCAN  5
	BEGIN_SCAN  6
		TASK_NAME=MODE_INTERVAL
		PROGRAM=BeamAdjust 1.2
		MEAS_DATE=07-Oct-2010 14:29:44
		LINAC=A4
		MODALITY=X
		INPLANE_AXIS_DIR=TARGET_GUN
		CROSSPLANE_AXIS_DIR=LEFT_RIGHT
		DEPTH_AXIS_DIR=UP_DOWN
		ENERGY=6.00
		SSD=950.00
		WEDGE=None
		FIELD_INPLANE=100.00
		FIELD_CROSSPLANE=100.00
		FIELD_TYPE=RECTANGULAR
		GANTRY=0.00
		GANTRY_UPRIGHT_POSITION=0
		GANTRY_ROTATION=CW
		COLL_ANGLE=90.00
		COLL_OFFSET_INPLANE=0.00
		COLL_OFFSET_CROSSPLANE=0.00
		SCAN_DEVICE=STARCHECK
		ELECTROMETER=2D_ARRAY_INTERFACE
		DETECTOR=STARCHECK
		SCAN_CURVETYPE=CROSSPLANE_PROFILE
		SCAN_DEPTH=0.00
		SCAN_OFFAXIS_INPLANE=100.00
		SCAN_ANGLE=0.00
		SCAN_DIAGONAL=NOT_DIAGONAL
		MEAS_PRESET=TIME_PRESET
		MEAS_TIME=10.000
		MEAS_UNIT=GY
		PRESSURE=1013.25
		TEMPERATURE=20.00
		NORM_TEMPERATURE=20.00
		CORRECTION_FACTOR=1.0000
		CORRECTIONS=AIR_DENSITY_CORR;
		BEGIN_DATA
			-60.00		11.437E-03
			-30.00		17.076E-03
			30.00		17.349E-03
			60.00		10.536E-03
		END_DATA
	END_SCAN  6
	BEGIN_SCAN  7
		TASK_NAME=MODE_INTERVAL
		PROGRAM=BeamAdjust 1.2
		MEAS_DATE=07-Oct-2010 14:29:44
		LINAC=A4
		MODALITY=X
		INPLANE_AXIS_DIR=TARGET_GUN
		CROSSPLANE_AXIS_DIR=LEFT_RIGHT
		DEPTH_AXIS_DIR=UP_DOWN
		ENERGY=6.00
		SSD=950.00
		WEDGE=None
		FIELD_INPLANE=100.00
		FIELD_CROSSPLANE=100.00
		FIELD_TYPE=RECTANGULAR
		GANTRY=0.00
		GANTRY_UPRIGHT_POSITION=0
		GANTRY_ROTATION=CW
		COLL_ANGLE=90.00
		COLL_OFFSET_INPLANE=0.00
		COLL_OFFSET_CROSSPLANE=0.00
		SCAN_DEVICE=STARCHECK
		ELECTROMETER=2D_ARRAY_INTERFACE
		DETECTOR=STARCHECK
		SCAN_CURVETYPE=CROSSPLANE_PROFILE
		SCAN_DEPTH=0.00
		SCAN_OFFAXIS_INPLANE=130.00
		SCAN_ANGLE=0.00
		SCAN_DIAGONAL=NOT_DIAGONAL
		MEAS_PRESET=TIME_PRESET
		MEAS_TIME=10.000
		MEAS_UNIT=GY
		PRESSURE=1013.25
		TEMPERATURE=20.00
		NORM_TEMPERATURE=20.00
		CORRECTION_FACTOR=1.0000
		CORRECTIONS=AIR_DENSITY_CORR;
		BEGIN_DATA
			-130.00		2.0462E-03
			-80.00		4.2430E-03
			-40.00		8.0200E-03
			40.00		7.8566E-03
			80.00		4.2991E-03
			130.00		2.3595E-03
		END_DATA
	END_SCAN  7
	BEGIN_SCAN  8
		TASK_NAME=MODE_INTERVAL
		PROGRAM=BeamAdjust 1.2
		MEAS_DATE=07-Oct-2010 14:29:44
		LINAC=A4
		MODALITY=X
		INPLANE_AXIS_DIR=TARGET_GUN
		CROSSPLANE_AXIS_DIR=LEFT_RIGHT
		DEPTH_AXIS_DIR=UP_DOWN
		ENERGY=6.00
		SSD=950.00
		WEDGE=None
		FIELD_INPLANE=100.00
		FIELD_CROSSPLANE=100.00
		FIELD_TYPE=RECTANGULAR
		GANTRY=0.00
		GANTRY_UPRIGHT_POSITION=0
		GANTRY_ROTATION=CW
		COLL_ANGLE=90.00
		COLL_OFFSET_INPLANE=0.00
		COLL_OFFSET_CROSSPLANE=0.00
		SCAN_DEVICE=STARCHECK
		ELECTROMETER=2D_ARRAY_INTERFACE
		DETECTOR=STARCHECK
		SCAN_CURVETYPE=INPLANE_PROFILE
		SCAN_DEPTH=0.00
		SCAN_OFFAXIS_CROSSPLANE=-130.00
		SCAN_ANGLE=0.00
		SCAN_DIAGONAL=NOT_DIAGONAL
		MEAS_PRESET=TIME_PRESET
		MEAS_TIME=10.000
		MEAS_UNIT=GY
		PRESSURE=1013.25
		TEMPERATURE=20.00
		NORM_TEMPERATURE=20.00
		CORRECTION_FACTOR=1.0000
		CORRECTIONS=AIR_DENSITY_CORR;
		BEGIN_DATA
			-130.00		2.2906E-03
			-125.00		2.1954E-03
			-120.00		2.6635E-03
			-115.00		2.9901E-03
			-110.00		2.8174E-03
			-105.00		3.4966E-03
			-100.00		3.6033E-03
			-95.00		4.1227E-03
			-90.00		4.0974E-03
			-85.00		4.2095E-03
			-80.00		4.1332E-03
			-75.00		4.4694E-03
			-70.00		4.4226E-03
			-65.00		4.7830E-03
			-60.00		4.6727E-03
			-55.00		5.4913E-03
			-50.00		4.3145E-03
			-45.00		4.3034E-03
			-40.00		4.3599E-03
			-35.00		5.3050E-03
			-30.00		4.9648E-03
			-25.00		5.2157E-03
			-20.00		4.8692E-03
			-15.00		4.9378E-03
			-10.00		5.1165E-03
			-5.00		5.6888E-03
			0.00		5.5331E-03
			5.00		6.9388E-03
			10.00		5.7618E-03
			15.00		5.1502E-03
			20.00		5.8158E-03
			25.00		4.9794E-03
			30.00		5.4975E-03
			35.00		5.3988E-03
			40.00		4.7184E-03
			45.00		4.9292E-03
			50.00		4.9447E-03
			55.00		4.5998E-03
			60.00		4.7201E-03
			65.00		3.8299E-03
			70.00		3.8126E-03
			75.00		4.1189E-03
			80.00		3.6859E-03
			85.00		3.4257E-03
			90.00		3.3673E-03
			95.00		3.3640E-03
			100.00		3.0594E-03
			105.00		2.4188E-03
			110.00		2.5172E-03
			115.00		2.3544E-03
			120.00		2.5944E-03
			125.00		2.1904E-03
			130.00		2.0462E-03
		END_DATA
	END_SCAN  8
	BEGIN_SCAN  9
		TASK_NAME=MODE_INTERVAL
		PROGRAM=BeamAdjust 1.2
		MEAS_DATE=07-Oct-2010 14:29:44
		LINAC=A4
		MODALITY=X
		INPLANE_AXIS_DIR=TARGET_GUN
		CROSSPLANE_AXIS_DIR=LEFT_RIGHT
		DEPTH_AXIS_DIR=UP_DOWN
		ENERGY=6.00
		SSD=950.00
		WEDGE=None
		FIELD_INPLANE=100.00
		FIELD_CROSSPLANE=100.00
		FIELD_TYPE=RECTANGULAR
		GANTRY=0.00
		GANTRY_UPRIGHT_POSITION=0
		GANTRY_ROTATION=CW
		COLL_ANGLE=90.00
		COLL_OFFSET_INPLANE=0.00
		COLL_OFFSET_CROSSPLANE=0.00
		SCAN_DEVICE=STARCHECK
		ELECTROMETER=2D_ARRAY_INTERFACE
		DETECTOR=STARCHECK
		SCAN_CURVETYPE=INPLANE_PROFILE
		SCAN_DEPTH=0.00
		SCAN_OFFAXIS_CROSSPLANE=-100.00
		SCAN_ANGLE=0.00
		SCAN_DIAGONAL=NOT_DIAGONAL
		MEAS_PRESET=TIME_PRESET
		MEAS_TIME=10.000
		MEAS_UNIT=GY
		PRESSURE=1013.25
		TEMPERATURE=20.00
		NORM_TEMPERATURE=20.00
		CORRECTION_FACTOR=1.0000
		CORRECTIONS=AIR_DENSITY_CORR;
		BEGIN_DATA
			-60.00		7.5718E-03
			-30.00		9.8000E-03
			30.00		10.483E-03
			60.00		8.1670E-03
		END_DATA
	END_SCAN  9
	BEGIN_SCAN  10
		TASK_NAME=MODE_INTERVAL
		PROGRAM=BeamAdjust 1.2
		MEAS_DATE=07-Oct-2010 14:29:44
		LINAC=A4
		MODALITY=X
		INPLANE_AXIS_DIR=TARGET_GUN
		CROSSPLANE_AXIS_DIR=LEFT_RIGHT
		DEPTH_AXIS_DIR=UP_DOWN
		ENERGY=6.00
		SSD=950.00
		WEDGE=None
		FIELD_INPLANE=100.00
		FIELD_CROSSPLANE=100.00
		FIELD_TYPE=RECTANGULAR
		GANTRY=0.00
		GANTRY_UPRIGHT_POSITION=0
		GANTRY_ROTATION=CW
		COLL_ANGLE=90.00
		COLL_OFFSET_INPLANE=0.00
		COLL_OFFSET_CROSSPLANE=0.00
		SCAN_DEVICE=STARCHECK
		ELECTROMETER=2D_ARRAY_INTERFACE
		DETECTOR=STARCHECK
		SCAN_CURVETYPE=INPLANE_PROFILE
		SCAN_DEPTH=0.00
		SCAN_OFFAXIS_CROSSPLANE=-50.00
		SCAN_ANGLE=0.00
		SCAN_DIAGONAL=NOT_DIAGONAL
		MEAS_PRESET=TIME_PRESET
		MEAS_TIME=10.000
		MEAS_UNIT=GY
		PRESSURE=1013.25
		TEMPERATURE=20.00
		NORM_TEMPERATURE=20.00
		CORRECTION_FACTOR=1.0000
		CORRECTIONS=AIR_DENSITY_CORR;
		BEGIN_DATA
			-30.00		391.06E-03
			-15.00		390.22E-03
			15.00		381.18E-03
			30.00		372.29E-03
		END_DATA
	END_SCAN  10
	BEGIN_SCAN  11
		TASK_NAME=MODE_INTERVAL
		PROGRAM=BeamAdjust 1.2
		MEAS_DATE=07-Oct-2010 14:29:44
		LINAC=A4
		MODALITY=X
		INPLANE_AXIS_DIR=TARGET_GUN
		CROSSPLANE_AXIS_DIR=LEFT_RIGHT
		DEPTH_AXIS_DIR=UP_DOWN
		ENERGY=6.00
		SSD=950.00
		WEDGE=None
		FIELD_INPLANE=100.00
		FIELD_CROSSPLANE=100.00
		FIELD_TYPE=RECTANGULAR
		GANTRY=0.00
		GANTRY_UPRIGHT_POSITION=0
		GANTRY_ROTATION=CW
		COLL_ANGLE=90.00
		COLL_OFFSET_INPLANE=0.00
		COLL_OFFSET_CROSSPLANE=0.00
		SCAN_DEVICE=STARCHECK
		ELECTROMETER=2D_ARRAY_INTERFACE
		DETECTOR=STARCHECK
		SCAN_CURVETYPE=INPLANE_PROFILE
		SCAN_DEPTH=0.00
		SCAN_OFFAXIS_CROSSPLANE=0.00
		SCAN_ANGLE=0.00
		SCAN_DIAGONAL=NOT_DIAGONAL
		MEAS_PRESET=TIME_PRESET
		MEAS_TIME=10.000
		MEAS_UNIT=GY
		PRESSURE=1013.25
		TEMPERATURE=20.00
		NORM_TEMPERATURE=20.00
		CORRECTION_FACTOR=1.0000
		CORRECTIONS=AIR_DENSITY_CORR;
		BEGIN_DATA
			-126.00		8.6251E-03
			-123.00		7.8699E-03
			-120.00		9.2317E-03
			-117.00		9.8715E-03
			-114.00		10.407E-03
			-111.00		11.022E-03
			-108.00		11.744E-03
			-105.00		12.649E-03
			-102.00		14.089E-03
			-99.00		14.555E-03
			-96.00		15.593E-03
			-93.00		17.306E-03
			-90.00		18.933E-03
			-87.00		20.005E-03
			-84.00		22.300E-03
			-81.00		23.802E-03
			-78.00		25.924E-03
			-75.00		27.645E-03
			-72.00		30.048E-03
			-69.00		32.779E-03
			-66.00		36.466E-03
			-63.00		40.262E-03
			-60.00		45.337E-03
			-57.00		52.670E-03
			-54.00		62.503E-03
			-51.00		81.180E-03
			-48.00		132.30E-03
			-45.00		303.95E-03
			-42.00		555.40E-03
			-39.00		623.53E-03
			-36.00		644.14E-03
			-33.00		653.69E-03
			-30.00		660.48E-03
			-27.00		663.90E-03
			-24.00		664.79E-03
			-21.00		664.24E-03
			-18.00		669.84E-03
			-15.00		667.65E-03
			-12.00		669.92E-03
			-9.00		672.95E-03
			-6.00		672.02E-03
			0.00		670.18E-03
			6.00		671.19E-03
			9.00		671.72E-03
			12.00		672.04E-03
			15.00		672.70E-03
			18.00		669.38E-03
			21.00		667.13E-03
			24.00		663.32E-03
			27.00		665.55E-03
			30.00		661.78E-03
			33.00		661.47E-03
			36.00		661.87E-03
			39.00		654.24E-03
			42.00		651.28E-03
			45.00		646.27E-03
			48.00		629.38E-03
			51.00		597.26E-03
			54.00		437.29E-03
			57.00		189.71E-03
			60.00		99.104E-03
			63.00		69.104E-03
			66.00		56.502E-03
			69.00		48.555E-03
			72.00		42.432E-03
			75.00		37.749E-03
			78.00		33.538E-03
			81.00		30.762E-03
			84.00		28.486E-03
			87.00		25.640E-03
			90.00		24.016E-03
			93.00		22.095E-03
			96.00		20.246E-03
			99.00		18.454E-03
			102.00		16.914E-03
			105.00		15.326E-03
			108.00		14.766E-03
			111.00		13.356E-03
			114.00		12.650E-03
			117.00		11.534E-03
			120.00		10.890E-03
			123.00		10.030E-03
			126.00		9.1462E-03
		END_DATA
	END_SCAN  11
	BEGIN_SCAN  12
		TASK_NAME=MODE_INTERVAL
		PROGRAM=BeamAdjust 1.2
		MEAS_DATE=07-Oct-2010 14:29:44
		LINAC=A4
		MODALITY=X
		INPLANE_AXIS_DIR=TARGET_GUN
		CROSSPLANE_AXIS_DIR=LEFT_RIGHT
		DEPTH_AXIS_DIR=UP_DOWN
		ENERGY=6.00
		SSD=950.00
		WEDGE=None
		FIELD_INPLANE=100.00
		FIELD_CROSSPLANE=100.00
		FIELD_TYPE=RECTANGULAR
		GANTRY=0.00
		GANTRY_UPRIGHT_POSITION=0
		GANTRY_ROTATION=CW
		COLL_ANGLE=90.00
		COLL_OFFSET_INPLANE=0.00
		COLL_OFFSET_CROSSPLANE=0.00
		SCAN_DEVICE=STARCHECK
		ELECTROMETER=2D_ARRAY_INTERFACE
		DETECTOR=STARCHECK
		SCAN_CURVETYPE=INPLANE_PROFILE
		SCAN_DEPTH=0.00
		SCAN_OFFAXIS_CROSSPLANE=50.00
		SCAN_ANGLE=0.00
		SCAN_DIAGONAL=NOT_DIAGONAL
		MEAS_PRESET=TIME_PRESET
		MEAS_TIME=10.000
		MEAS_UNIT=GY
		PRESSURE=1013.25
		TEMPERATURE=20.00
		NORM_TEMPERATURE=20.00
		CORRECTION_FACTOR=1.0000
		CORRECTIONS=AIR_DENSITY_CORR;
		BEGIN_DATA
			-30.00		327.98E-03
			-15.00		339.18E-03
			15.00		348.78E-03
			30.00		351.45E-03
		END_DATA
	END_SCAN  12
	BEGIN_SCAN  13
		TASK_NAME=MODE_INTERVAL
		PROGRAM=BeamAdjust 1.2
		MEAS_DATE=07-Oct-2010 14:29:44
		LINAC=A4
		MODALITY=X
		INPLANE_AXIS_DIR=TARGET_GUN
		CROSSPLANE_AXIS_DIR=LEFT_RIGHT
		DEPTH_AXIS_DIR=UP_DOWN
		ENERGY=6.00
		SSD=950.00
		WEDGE=None
		FIELD_INPLANE=100.00
		FIELD_CROSSPLANE=100.00
		FIELD_TYPE=RECTANGULAR
		GANTRY=0.00
		GANTRY_UPRIGHT_POSITION=0
		GANTRY_ROTATION=CW
		COLL_ANGLE=90.00
		COLL_OFFSET_INPLANE=0.00
		COLL_OFFSET_CROSSPLANE=0.00
		SCAN_DEVICE=STARCHECK
		ELECTROMETER=2D_ARRAY_INTERFACE
		DETECTOR=STARCHECK
		SCAN_CURVETYPE=INPLANE_PROFILE
		SCAN_DEPTH=0.00
		SCAN_OFFAXIS_CROSSPLANE=100.00
		SCAN_ANGLE=0.00
		SCAN_DIAGONAL=NOT_DIAGONAL
		MEAS_PRESET=TIME_PRESET
		MEAS_TIME=10.000
		MEAS_UNIT=GY
		PRESSURE=1013.25
		TEMPERATURE=20.00
		NORM_TEMPERATURE=20.00
		CORRECTION_FACTOR=1.0000
		CORRECTIONS=AIR_DENSITY_CORR;
		BEGIN_DATA
			-60.00		7.3761E-03
			-30.00		10.018E-03
			30.00		10.369E-03
			60.00		7.7766E-03
		END_DATA
	END_SCAN  13
	BEGIN_SCAN  14
		TASK_NAME=MODE_INTERVAL
		PROGRAM=BeamAdjust 1.2
		MEAS_DATE=07-Oct-2010 14:29:44
		LINAC=A4
		MODALITY=X
		INPLANE_AXIS_DIR=TARGET_GUN
		CROSSPLANE_AXIS_DIR=LEFT_RIGHT
		DEPTH_AXIS_DIR=UP_DOWN
		ENERGY=6.00
		SSD=950.00
		WEDGE=None
		FIELD_INPLANE=100.00
		FIELD_CROSSPLANE=100.00
		FIELD_TYPE=RECTANGULAR
		GANTRY=0.00
		GANTRY_UPRIGHT_POSITION=0
		GANTRY_ROTATION=CW
		COLL_ANGLE=90.00
		COLL_OFFSET_INPLANE=0.00
		COLL_OFFSET_CROSSPLANE=0.00
		SCAN_DEVICE=STARCHECK
		ELECTROMETER=2D_ARRAY_INTERFACE
		DETECTOR=STARCHECK
		SCAN_CURVETYPE=INPLANE_PROFILE
		SCAN_DEPTH=0.00
		SCAN_OFFAXIS_CROSSPLANE=130.00
		SCAN_ANGLE=0.00
		SCAN_DIAGONAL=NOT_DIAGONAL
		MEAS_PRESET=TIME_PRESET
		MEAS_TIME=10.000
		MEAS_UNIT=GY
		PRESSURE=1013.25
		TEMPERATURE=20.00
		NORM_TEMPERATURE=20.00
		CORRECTION_FACTOR=1.0000
		CORRECTIONS=AIR_DENSITY_CORR;
		BEGIN_DATA
			-130.00		1.7190E-03
			-125.00		2.0403E-03
			-120.00		2.0281E-03
			-115.00		2.5581E-03
			-110.00		2.0578E-03
			-105.00		2.4036E-03
			-100.00		2.6093E-03
			-95.00		2.6111E-03
			-90.00		2.2882E-03
			-85.00		3.4657E-03
			-80.00		3.0176E-03
			-75.00		3.9366E-03
			-70.00		3.2056E-03
			-65.00		3.6189E-03
			-60.00		4.2382E-03
			-55.00		3.7657E-03
			-50.00		4.0242E-03
			-45.00		4.4478E-03
			-40.00		4.8418E-03
			-35.00		4.7093E-03
			-30.00		5.0024E-03
			-25.00		4.7888E-03
			-20.00		5.1861E-03
			-15.00		4.9531E-03
			-10.00		4.4731E-03
			-5.00		6.1805E-03
			0.00		5.3968E-03
			5.00		6.0466E-03
			10.00		5.9612E-03
			15.00		5.3783E-03
			20.00		5.1515E-03
			25.00		5.1618E-03
			30.00		5.3548E-03
			35.00		5.3974E-03
			40.00		5.7622E-03
			45.00		5.1509E-03
			50.00		5.1097E-03
			55.00		5.3309E-03
			60.00		5.0885E-03
			65.00		4.7458E-03
			70.00		4.0891E-03
			75.00		4.3077E-03
			80.00		4.3790E-03
			85.00		4.1839E-03
			90.00		3.3266E-03
			95.00		3.4320E-03
			100.00		3.6982E-03
			105.00		2.9387E-03
			110.00		2.8039E-03
			115.00		3.0600E-03
			120.00		3.1253E-03
			125.00		2.1105E-03
			130.00		2.3595E-03
		END_DATA
	END_SCAN  14
	BEGIN_SCAN  15
		TASK_NAME=MODE_INTERVAL
		PROGRAM=BeamAdjust 1.2
		MEAS_DATE=07-Oct-2010 14:29:44
		LINAC=A4
		MODALITY=X
		INPLANE_AXIS_DIR=TARGET_GUN
		CROSSPLANE_AXIS_DIR=LEFT_RIGHT
		DEPTH_AXIS_DIR=UP_DOWN
		ENERGY=6.00
		SSD=950.00
		WEDGE=None
		FIELD_INPLANE=100.00
		FIELD_CROSSPLANE=100.00
		FIELD_TYPE=RECTANGULAR
		GANTRY=0.00
		GANTRY_UPRIGHT_POSITION=0
		GANTRY_ROTATION=CW
		COLL_ANGLE=90.00
		COLL_OFFSET_INPLANE=0.00
		COLL_OFFSET_CROSSPLANE=0.00
		SCAN_DEVICE=STARCHECK
		ELECTROMETER=2D_ARRAY_INTERFACE
		DETECTOR=STARCHECK
		SCAN_CURVETYPE=INPLANE_PROFILE
		SCAN_DEPTH=0.00
		SCAN_OFFAXIS_CROSSPLANE=0.00
		SCAN_ANGLE=0.00
		SCAN_DIAGONAL=FIRST_DIAGONAL
		MEAS_PRESET=TIME_PRESET
		MEAS_TIME=10.000
		MEAS_UNIT=GY
		PRESSURE=1013.25
		TEMPERATURE=20.00
		NORM_TEMPERATURE=20.00
		CORRECTION_FACTOR=1.0000
		CORRECTIONS=AIR_DENSITY_CORR;
		BEGIN_DATA
			-172.40		2.2808E-03
			-169.40		3.0895E-03
			-166.40		3.3995E-03
			-163.40		3.5255E-03
			-160.40		3.4149E-03
			-157.40		3.5328E-03
			-154.40		3.7918E-03
			-151.40		3.4342E-03
			-148.40		4.0825E-03
			-145.40		4.8993E-03
			-142.40		5.0171E-03
			-139.40		5.2099E-03
			-136.40		5.7474E-03
			-133.40		6.0081E-03
			-130.40		6.5941E-03
			-127.40		7.2592E-03
			-124.40		7.3960E-03
			-121.40		8.0831E-03
			-118.40		8.7611E-03
			-115.40		9.5083E-03
			-112.40		10.359E-03
			-109.40		11.439E-03
			-106.40		12.183E-03
			-103.40		13.064E-03
			-100.40		13.804E-03
			-97.40		16.024E-03
			-94.40		17.457E-03
			-91.40		19.466E-03
			-88.40		21.754E-03
			-85.40		23.959E-03
			-82.40		27.030E-03
			-79.40		30.562E-03
			-76.40		35.164E-03
			-73.40		44.618E-03
			-70.40		64.387E-03
			-67.40		124.05E-03
			-64.40		259.29E-03
			-61.40		417.52E-03
			-58.40		536.53E-03
			-55.40		601.97E-03
			-52.40		626.95E-03
			-49.40		639.76E-03
			-46.40		645.96E-03
			-43.40		649.99E-03
			-40.40		654.30E-03
			-37.40		659.79E-03
			-34.40		660.24E-03
			-31.40		662.54E-03
			-28.40		662.16E-03
			-25.40		665.27E-03
			-22.40		665.09E-03
			-19.40		664.77E-03
			-16.40		667.36E-03
			-13.40		671.29E-03
			0.00		670.18E-03
			13.40		674.61E-03
			16.40		671.11E-03
			19.40		670.49E-03
			22.40		668.34E-03
			25.40		667.27E-03
			28.40		666.68E-03
			31.40		664.43E-03
			34.40		661.75E-03
			37.40		664.70E-03
			40.40		662.64E-03
			43.40		659.73E-03
			46.40		658.51E-03
			49.40		653.78E-03
			52.40		651.79E-03
			55.40		641.63E-03
			58.40		633.79E-03
			61.40		619.02E-03
			64.40		580.99E-03
			67.40		489.07E-03
			70.40		331.10E-03
			73.40		159.09E-03
			76.40		71.052E-03
			79.40		46.293E-03
			82.40		36.337E-03
			85.40		30.434E-03
			88.40		26.722E-03
			91.40		23.279E-03
			94.40		21.060E-03
			97.40		18.800E-03
			100.40		17.067E-03
			103.40		16.500E-03
			106.40		14.262E-03
			109.40		13.222E-03
			112.40		11.458E-03
			115.40		10.836E-03
			118.40		9.4903E-03
			121.40		8.8315E-03
			124.40		8.2667E-03
			127.40		8.1961E-03
			130.40		7.6536E-03
			133.40		6.6018E-03
			136.40		5.4370E-03
			139.40		5.0515E-03
			142.40		4.4680E-03
			145.40		5.1918E-03
			148.40		4.4047E-03
			151.40		3.6281E-03
			154.40		3.6051E-03
			157.40		3.4925E-03
			160.40		2.6373E-03
			163.40		2.2478E-03
			166.40		2.4274E-03
			169.40		2.3317E-03
			172.40		2.5728E-03
		END_DATA
	END_SCAN  15
	BEGIN_SCAN  16
		TASK_NAME=MODE_INTERVAL
		PROGRAM=BeamAdjust 1.2
		MEAS_DATE=07-Oct-2010 14:29:44
		LINAC=A4
		MODALITY=X
		INPLANE_AXIS_DIR=GUN_TARGET
		CROSSPLANE_AXIS_DIR=LEFT_RIGHT
		DEPTH_AXIS_DIR=UP_DOWN
		ENERGY=6.00
		SSD=950.00
		WEDGE=None
		FIELD_INPLANE=100.00
		FIELD_CROSSPLANE=100.00
		FIELD_TYPE=RECTANGULAR
		GANTRY=0.00
		GANTRY_UPRIGHT_POSITION=0
		GANTRY_ROTATION=CW
		COLL_ANGLE=90.00
		COLL_OFFSET_INPLANE=0.00
		COLL_OFFSET_CROSSPLANE=0.00
		SCAN_DEVICE=STARCHECK
		ELECTROMETER=2D_ARRAY_INTERFACE
		DETECTOR=STARCHECK
		SCAN_CURVETYPE=INPLANE_PROFILE
		SCAN_DEPTH=0.00
		SCAN_OFFAXIS_CROSSPLANE=0.00
		SCAN_ANGLE=0.00
		SCAN_DIAGONAL=SECOND_DIAGONAL
		MEAS_PRESET=TIME_PRESET
		MEAS_TIME=10.000
		MEAS_UNIT=GY
		PRESSURE=1013.25
		TEMPERATURE=20.00
		NORM_TEMPERATURE=20.00
		CORRECTION_FACTOR=1.0000
		CORRECTIONS=AIR_DENSITY_CORR;
		BEGIN_DATA
			-172.40		2.1797E-03
			-169.40		2.6902E-03
			-166.40		2.1694E-03
			-163.40		2.5412E-03
			-160.40		2.8197E-03
			-157.40		3.2454E-03
			-154.40		3.3746E-03
			-151.40		3.4271E-03
			-148.40		4.1633E-03
			-145.40		3.9854E-03
			-142.40		4.6782E-03
			-139.40		4.8126E-03
			-136.40		5.5761E-03
			-133.40		6.0090E-03
			-130.40		6.4288E-03
			-127.40		7.3270E-03
			-124.40		7.7350E-03
			-121.40		8.1240E-03
			-118.40		8.6253E-03
			-115.40		9.1147E-03
			-112.40		9.7887E-03
			-109.40		10.882E-03
			-106.40		12.048E-03
			-103.40		12.751E-03
			-100.40		14.528E-03
			-97.40		15.629E-03
			-94.40		17.459E-03
			-91.40		18.696E-03
			-88.40		20.590E-03
			-85.40		22.821E-03
			-82.40		26.042E-03
			-79.40		29.840E-03
			-76.40		34.537E-03
			-73.40		43.044E-03
			-70.40		59.122E-03
			-67.40		108.78E-03
			-64.40		242.54E-03
			-61.40		407.84E-03
			-58.40		537.88E-03
			-55.40		603.22E-03
			-52.40		633.50E-03
			-49.40		644.54E-03
			-46.40		651.13E-03
			-43.40		656.05E-03
			-40.40		658.69E-03
			-37.40		663.26E-03
			-34.40		663.20E-03
			-31.40		665.18E-03
			-28.40		668.29E-03
			-25.40		667.38E-03
			-22.40		665.99E-03
			-19.40		669.15E-03
			-16.40		669.52E-03
			-13.40		672.92E-03
			0.00		670.18E-03
			13.40		673.36E-03
			16.40		671.34E-03
			19.40		667.92E-03
			22.40		664.21E-03
			25.40		663.99E-03
			28.40		663.13E-03
			31.40		661.37E-03
			34.40		659.07E-03
			37.40		659.16E-03
			40.40		657.99E-03
			43.40		656.43E-03
			46.40		655.12E-03
			49.40		651.87E-03
			52.40		645.18E-03
			55.40		639.13E-03
			58.40		632.84E-03
			61.40		617.12E-03
			64.40		583.14E-03
			67.40		495.08E-03
			70.40		341.83E-03
			73.40		167.97E-03
			76.40		73.392E-03
			79.40		47.300E-03
			82.40		37.196E-03
			85.40		31.533E-03
			88.40		27.304E-03
			91.40		24.261E-03
			94.40		22.069E-03
			97.40		19.792E-03
			100.40		16.878E-03
			103.40		15.506E-03
			106.40		14.380E-03
			109.40		12.903E-03
			112.40		12.456E-03
			115.40		11.104E-03
			118.40		10.281E-03
			121.40		8.8895E-03
			124.40		8.1229E-03
			127.40		7.6945E-03
			130.40		7.7369E-03
			133.40		6.5014E-03
			136.40		6.7093E-03
			139.40		6.1496E-03
			142.40		5.8043E-03
			145.40		5.5619E-03
			148.40		4.8621E-03
			151.40		4.0326E-03
			154.40		4.3803E-03
			157.40		4.0426E-03
			160.40		4.0522E-03
			163.40		3.9365E-03
			166.40		3.3205E-03
			169.40		2.8901E-03
			172.40		2.6754E-03
		END_DATA
	END_SCAN  16
END_SCAN_DATA
