BEGIN_SCAN_DATA
	FORMAT=CC-Export V1.9
	FILE_CREATION_DATE=07-Nov-2017 17:05:31
	LAST_MODIFIED=07-Nov-2017 17:05:31
	BEGIN_SCAN   1
		PROGRAM=BistroMath.exe v3.09 (build 581)
		COMMENT=T -15; A -10; TA -15 -5; GA -5
		MEAS_DATE=06-Nov-2017 18:20:50
		LINAC=U04
		MODALITY=X
		ISOCENTER=1000.0
		INPLANE_AXIS=X
		CROSSPLANE_AXIS=Y
		DEPTH_AXIS=Z
		INPLANE_AXIS_DIR=GUN_TARGET
		CROSSPLANE_AXIS_DIR=LEFT_RIGHT
		DEPTH_AXIS_DIR=UP_DOWN
		ENERGY=6.00
		NOMINAL_DMAX=15.00
		SSD=1000.00
		SCD=380.00
		BLOCK=0
		WEDGE_ANGLE=0.00
		FIELD_INPLANE=400.00
		FIELD_CROSSPLANE=400.00
		FIELD_TYPE=RECTANGULAR
		GANTRY=0.00
		GANTRY_UPRIGHT_POSITION=0.00
		GANTRY_ROTATION=CW
		COLL_ANGLE=0.00
		COLL_OFFSET_INPLANE=0.00
		COLL_OFFSET_CROSSPLANE=0.00
		SCAN_CURVETYPE=INPLANE_PROFILE
		SCAN_DEPTH=50.00
		SCAN_OFFAXIS_INPLANE=0.00
		SCAN_OFFAXIS_CROSSPLANE=0.00
		SCAN_ANGLE=45.00
		SCAN_DIAGONAL=SECOND_DIAGONAL
		SCAN_DIRECTION=NEGATIVE
		SCAN_COLOR=0
		MEAS_MEDIUM=WATER
		MEAS_TIME=0.00
		MEAS_UNIT=Relative Dose
		BEGIN_DATA
			295.40		3.3780E+000	10.000E+00
			292.40		3.5310E+000	10.000E+00
			289.40		3.9330E+000	10.000E+00
			286.41		4.3550E+000	10.000E+00
			283.39		4.7820E+000	10.000E+00
			280.40		5.2710E+000	10.000E+00
			277.40		5.8320E+000	10.000E+00
			274.40		6.4630E+000	10.000E+00
			271.40		7.2480E+000	10.000E+00
			268.40		8.3120E+000	10.000E+00
			265.41		9.8890E+000	10.000E+00
			262.39		1.2612E+001	10.000E+00
			259.40		1.8336E+001	10.000E+00
			256.40		2.9558E+001	10.000E+00
			253.40		4.4673E+001	10.000E+00
			250.40		5.7438E+001	10.000E+00
			247.40		6.5192E+001	10.000E+00
			244.40		7.0712E+001	10.000E+00
			241.41		7.6215E+001	10.000E+00
			238.39		8.1741E+001	10.000E+00
			235.40		8.6578E+001	10.000E+00
			232.40		9.0193E+001	10.000E+00
			229.40		9.2777E+001	10.000E+00
			226.40		9.4721E+001	10.000E+00
			223.40		9.6201E+001	10.000E+00
			220.41		9.7380E+001	10.000E+00
			217.41		9.8251E+001	10.000E+00
			214.39		9.8602E+001	10.000E+00
			211.40		9.8484E+001	10.000E+00
			208.40		9.8222E+001	10.000E+00
			205.40		9.8165E+001	10.000E+00
			202.40		9.8426E+001	10.000E+00
			199.40		9.8799E+001	10.000E+00
			196.41		9.9035E+001	10.000E+00
			193.39		9.9114E+001	10.000E+00
			190.40		9.9104E+001	10.000E+00
			187.40		9.9094E+001	10.000E+00
			184.40		9.9163E+001	10.000E+00
			181.40		9.9242E+001	10.000E+00
			178.40		9.9271E+001	10.000E+00
			175.40		9.9252E+001	10.000E+00
			172.41		9.9212E+001	10.000E+00
			169.39		9.9222E+001	10.000E+00
			166.40		9.9252E+001	10.000E+00
			163.40		9.9252E+001	10.000E+00
			160.40		9.9271E+001	10.000E+00
			157.40		9.9350E+001	10.000E+00
			154.40		9.9458E+001	10.000E+00
			151.41		9.9488E+001	10.000E+00
			148.39		9.9439E+001	10.000E+00
			145.40		9.9321E+001	10.000E+00
			142.40		9.9094E+001	10.000E+00
			139.40		9.8828E+001	10.000E+00
			136.40		9.8661E+001	10.000E+00
			133.40		9.8621E+001	10.000E+00
			130.40		9.8592E+001	10.000E+00
			127.41		9.8533E+001	10.000E+00
			124.39		9.8473E+001	10.000E+00
			121.40		9.8392E+001	10.000E+00
			118.40		9.8269E+001	10.000E+00
			115.40		9.8186E+001	10.000E+00
			112.40		9.8182E+001	10.000E+00
			109.40		9.8202E+001	10.000E+00
			106.41		9.8214E+001	10.000E+00
			103.39		9.8180E+001	10.000E+00
			100.40		9.8074E+001	10.000E+00
			97.40		9.7881E+001	10.000E+00
			94.40		9.7152E+001	10.000E+00
			91.40		9.4559E+001	10.000E+00
			88.40		8.9455E+001	10.000E+00
			85.40		8.4379E+001	10.000E+00
			82.41		8.2019E+001	10.000E+00
			79.39		8.1518E+001	10.000E+00
			76.40		8.1387E+001	10.000E+00
			73.40		8.1410E+001	10.000E+00
			70.40		8.1622E+001	10.000E+00
			67.40		8.2317E+001	10.000E+00
			64.40		8.5201E+001	10.000E+00
			61.41		9.0934E+001	10.000E+00
			58.41		9.6061E+001	10.000E+00
			55.39		9.8101E+001	10.000E+00
			52.40		9.8463E+001	10.000E+00
			49.40		9.8543E+001	10.000E+00
			46.40		9.8592E+001	10.000E+00
			43.40		9.8582E+001	10.000E+00
			40.40		9.8447E+001	10.000E+00
			37.41		9.8327E+001	10.000E+00
			34.39		9.8282E+001	10.000E+00
			31.40		9.8269E+001	10.000E+00
			28.40		9.8218E+001	10.000E+00
			25.40		9.8090E+001	10.000E+00
			22.40		9.7944E+001	10.000E+00
			19.40		9.7857E+001	10.000E+00
			16.40		9.7866E+001	10.000E+00
			13.41		9.7909E+001	10.000E+00
			-13.41		9.8099E+001	10.000E+00
			-16.40		9.8074E+001	10.000E+00
			-19.40		9.7994E+001	10.000E+00
			-22.40		9.7958E+001	10.000E+00
			-25.40		9.7992E+001	10.000E+00
			-28.40		9.8012E+001	10.000E+00
			-31.40		9.8048E+001	10.000E+00
			-34.39		9.8175E+001	10.000E+00
			-37.41		9.8322E+001	10.000E+00
			-40.40		9.8413E+001	10.000E+00
			-43.40		9.8464E+001	10.000E+00
			-46.40		9.8533E+001	10.000E+00
			-49.40		9.8592E+001	10.000E+00
			-52.40		9.8612E+001	10.000E+00
			-55.39		9.8651E+001	10.000E+00
			-58.41		9.8720E+001	10.000E+00
			-61.41		9.8720E+001	10.000E+00
			-64.40		9.8621E+001	10.000E+00
			-67.40		9.8484E+001	10.000E+00
			-70.40		9.8377E+001	10.000E+00
			-73.40		9.8268E+001	10.000E+00
			-76.40		9.8097E+001	10.000E+00
			-79.39		9.7950E+001	10.000E+00
			-82.41		9.7958E+001	10.000E+00
			-85.40		9.8090E+001	10.000E+00
			-88.40		9.8179E+001	10.000E+00
			-91.40		9.8193E+001	10.000E+00
			-94.40		9.8171E+001	10.000E+00
			-97.40		9.8115E+001	10.000E+00
			-100.40		9.8094E+001	10.000E+00
			-103.39		9.8140E+001	10.000E+00
			-106.41		9.8205E+001	10.000E+00
			-109.40		9.8300E+001	10.000E+00
			-112.40		9.8423E+001	10.000E+00
			-115.40		9.8533E+001	10.000E+00
			-118.40		9.8612E+001	10.000E+00
			-121.40		9.8700E+001	10.000E+00
			-124.39		9.8769E+001	10.000E+00
			-127.41		9.8887E+001	10.000E+00
			-130.40		9.9094E+001	10.000E+00
			-133.40		9.9281E+001	10.000E+00
			-136.40		9.9439E+001	10.000E+00
			-139.40		9.9606E+001	10.000E+00
			-142.40		9.9724E+001	10.000E+00
			-145.40		9.9823E+001	10.000E+00
			-148.39		9.9921E+001	10.000E+00
			-151.41		1.0000E+002	10.000E+00
			-154.40		9.9980E+001	10.000E+00
			-157.40		9.9852E+001	10.000E+00
			-160.40		9.9705E+001	10.000E+00
			-163.40		9.9616E+001	10.000E+00
			-166.40		9.9616E+001	10.000E+00
			-169.39		9.9705E+001	10.000E+00
			-172.41		9.9764E+001	10.000E+00
			-175.40		9.9675E+001	10.000E+00
			-178.40		9.9567E+001	10.000E+00
			-181.40		9.9596E+001	10.000E+00
			-184.40		9.9675E+001	10.000E+00
			-187.40		9.9714E+001	10.000E+00
			-190.40		9.9744E+001	10.000E+00
			-193.39		9.9754E+001	10.000E+00
			-196.41		9.9685E+001	10.000E+00
			-199.40		9.9517E+001	10.000E+00
			-202.40		9.9202E+001	10.000E+00
			-205.40		9.8848E+001	10.000E+00
			-208.40		9.8730E+001	10.000E+00
			-211.40		9.8927E+001	10.000E+00
			-214.39		9.9163E+001	10.000E+00
			-217.41		9.9015E+001	10.000E+00
			-220.41		9.8340E+001	10.000E+00
			-223.40		9.7323E+001	10.000E+00
			-226.40		9.6103E+001	10.000E+00
			-229.40		9.4554E+001	10.000E+00
			-232.40		9.2315E+001	10.000E+00
			-235.40		8.9002E+001	10.000E+00
			-238.39		8.4588E+001	10.000E+00
			-241.41		7.9409E+001	10.000E+00
			-244.40		7.3866E+001	10.000E+00
			-247.40		6.7957E+001	10.000E+00
			-250.40		5.9380E+001	10.000E+00
			-253.40		4.5712E+001	10.000E+00
			-256.40		3.0542E+001	10.000E+00
			-259.40		1.9844E+001	10.000E+00
			-262.39		1.4442E+001	10.000E+00
			-265.41		1.1707E+001	10.000E+00
			-268.40		9.9230E+000	10.000E+00
			-271.40		8.6460E+000	10.000E+00
			-274.40		7.6780E+000	10.000E+00
			-277.40		6.9130E+000	10.000E+00
			-280.40		6.3010E+000	10.000E+00
			-283.39		5.7760E+000	10.000E+00
			-286.41		5.3090E+000	10.000E+00
			-289.40		4.8900E+000	10.000E+00
			-292.40		4.5360E+000	10.000E+00
			-295.40		4.2550E+000	10.000E+00
		END_DATA
	END_SCAN   1
END_SCAN_DATA
