BEGIN_SCAN_DATA
	FORMAT=CC-Export V1.9
	FILE_CREATION_DATE=07-Nov-2017 17:19:09
	LAST_MODIFIED=07-Nov-2017 17:19:09
	BEGIN_SCAN   1
		PROGRAM=BistroMath.exe v3.09 (build 581)
		COMMENT=T -15; A -10; TA -15 -5; GA -5
		MEAS_DATE=06-Nov-2017 18:20:50
		LINAC=U04
		MODALITY=X
		ISOCENTER=1000.0
		INPLANE_AXIS=X
		CROSSPLANE_AXIS=Y
		DEPTH_AXIS=Z
		INPLANE_AXIS_DIR=TARGET_GUN
		CROSSPLANE_AXIS_DIR=LEFT_RIGHT
		DEPTH_AXIS_DIR=UP_DOWN
		ENERGY=6.00
		NOMINAL_DMAX=15.00
		SSD=1000.00
		SCD=380.00
		BLOCK=0
		WEDGE_ANGLE=0.00
		FIELD_INPLANE=400.00
		FIELD_CROSSPLANE=400.00
		FIELD_TYPE=RECTANGULAR
		GANTRY=0.00
		GANTRY_UPRIGHT_POSITION=0.00
		GANTRY_ROTATION=CW
		COLL_ANGLE=0.00
		COLL_OFFSET_INPLANE=0.00
		COLL_OFFSET_CROSSPLANE=0.00
		SCAN_CURVETYPE=CROSSPLANE_PROFILE
		SCAN_DEPTH=50.00
		SCAN_OFFAXIS_INPLANE=0.00
		SCAN_OFFAXIS_CROSSPLANE=0.00
		SCAN_ANGLE=135.00
		SCAN_DIAGONAL=FIRST_DIAGONAL
		SCAN_DIRECTION=POSITIVE
		SCAN_COLOR=0
		MEAS_MEDIUM=WATER
		MEAS_TIME=0.00
		MEAS_UNIT=Relative Dose
		BEGIN_DATA
			-295.40		4.3590E+000	10.000E+00
			-292.40		4.7140E+000	10.000E+00
			-289.40		5.0650E+000	10.000E+00
			-286.41		5.4520E+000	10.000E+00
			-283.39		5.9160E+000	10.000E+00
			-280.40		6.4500E+000	10.000E+00
			-277.40		7.0800E+000	10.000E+00
			-274.40		7.8650E+000	10.000E+00
			-271.40		8.8790E+000	10.000E+00
			-268.40		1.0189E+001	10.000E+00
			-265.41		1.1962E+001	10.000E+00
			-262.39		1.4957E+001	10.000E+00
			-259.40		2.1095E+001	10.000E+00
			-256.40		3.2315E+001	10.000E+00
			-253.40		4.6970E+001	10.000E+00
			-250.40		5.9626E+001	10.000E+00
			-247.40		6.7685E+001	10.000E+00
			-244.40		7.3539E+001	10.000E+00
			-241.41		7.9057E+001	10.000E+00
			-238.39		8.4048E+001	10.000E+00
			-235.40		8.8214E+001	10.000E+00
			-232.40		9.1423E+001	10.000E+00
			-229.40		9.3680E+001	10.000E+00
			-226.40		9.5190E+001	10.000E+00
			-223.40		9.5998E+001	10.000E+00
			-220.41		9.5446E+001	10.000E+00
			-217.41		9.3365E+001	10.000E+00
			-214.39		9.1095E+001	10.000E+00
			-211.40		8.9773E+001	10.000E+00
			-208.40		8.9366E+001	10.000E+00
			-205.40		8.9509E+001	10.000E+00
			-202.40		9.0045E+001	10.000E+00
			-199.40		9.1225E+001	10.000E+00
			-196.41		9.3538E+001	10.000E+00
			-193.39		9.6513E+001	10.000E+00
			-190.40		9.8636E+001	10.000E+00
			-187.40		9.9431E+001	10.000E+00
			-184.40		9.9617E+001	10.000E+00
			-181.40		9.9676E+001	10.000E+00
			-178.40		9.9706E+001	10.000E+00
			-175.40		9.9745E+001	10.000E+00
			-172.41		9.9784E+001	10.000E+00
			-169.39		9.9774E+001	10.000E+00
			-166.40		9.9755E+001	10.000E+00
			-163.40		9.9755E+001	10.000E+00
			-160.40		9.9823E+001	10.000E+00
			-157.40		9.9931E+001	10.000E+00
			-154.40		9.9990E+001	10.000E+00
			-151.41		1.0000E+002	10.000E+00
			-148.39		9.9882E+001	10.000E+00
			-145.40		9.9627E+001	10.000E+00
			-142.40		9.9362E+001	10.000E+00
			-139.40		9.9117E+001	10.000E+00
			-136.40		9.8558E+001	10.000E+00
			-133.40		9.6884E+001	10.000E+00
			-130.40		9.4075E+001	10.000E+00
			-127.41		9.1524E+001	10.000E+00
			-124.39		9.0173E+001	10.000E+00
			-121.40		8.9714E+001	10.000E+00
			-118.40		8.9637E+001	10.000E+00
			-115.40		8.9837E+001	10.000E+00
			-112.40		9.0662E+001	10.000E+00
			-109.40		9.2600E+001	10.000E+00
			-106.41		9.5229E+001	10.000E+00
			-103.39		9.7140E+001	10.000E+00
			-100.40		9.7832E+001	10.000E+00
			-97.40		9.8007E+001	10.000E+00
			-94.40		9.8122E+001	10.000E+00
			-91.40		9.8194E+001	10.000E+00
			-88.40		9.8234E+001	10.000E+00
			-85.40		9.8234E+001	10.000E+00
			-82.41		9.8214E+001	10.000E+00
			-79.39		9.8214E+001	10.000E+00
			-76.40		9.8204E+001	10.000E+00
			-73.40		9.8155E+001	10.000E+00
			-70.40		9.8155E+001	10.000E+00
			-67.40		9.8214E+001	10.000E+00
			-64.40		9.8302E+001	10.000E+00
			-61.41		9.8361E+001	10.000E+00
			-58.41		9.8381E+001	10.000E+00
			-55.39		9.8371E+001	10.000E+00
			-52.40		9.8410E+001	10.000E+00
			-49.40		9.8420E+001	10.000E+00
			-46.40		9.8302E+001	10.000E+00
			-43.40		9.8185E+001	10.000E+00
			-40.40		9.8145E+001	10.000E+00
			-37.41		9.8136E+001	10.000E+00
			-34.39		9.8102E+001	10.000E+00
			-31.40		9.8076E+001	10.000E+00
			-28.40		9.8040E+001	10.000E+00
			-25.40		9.7957E+001	10.000E+00
			-22.40		9.7854E+001	10.000E+00
			-19.40		9.7858E+001	10.000E+00
			-16.40		9.7930E+001	10.000E+00
			-13.41		9.7947E+001	10.000E+00
			13.41		9.7830E+001	10.000E+00
			16.40		9.7807E+001	10.000E+00
			19.40		9.7761E+001	10.000E+00
			22.40		9.7694E+001	10.000E+00
			25.40		9.7681E+001	10.000E+00
			28.40		9.7771E+001	10.000E+00
			31.40		9.7869E+001	10.000E+00
			34.39		9.7926E+001	10.000E+00
			37.41		9.7973E+001	10.000E+00
			40.40		9.8010E+001	10.000E+00
			43.40		9.8038E+001	10.000E+00
			46.40		9.8054E+001	10.000E+00
			49.40		9.8078E+001	10.000E+00
			52.40		9.8126E+001	10.000E+00
			55.39		9.8155E+001	10.000E+00
			58.41		9.8145E+001	10.000E+00
			61.41		9.8089E+001	10.000E+00
			64.40		9.8007E+001	10.000E+00
			67.40		9.7899E+001	10.000E+00
			70.40		9.7797E+001	10.000E+00
			73.40		9.7793E+001	10.000E+00
			76.40		9.7870E+001	10.000E+00
			79.39		9.7908E+001	10.000E+00
			82.41		9.7904E+001	10.000E+00
			85.40		9.7902E+001	10.000E+00
			88.40		9.7881E+001	10.000E+00
			91.40		9.7822E+001	10.000E+00
			94.40		9.7753E+001	10.000E+00
			97.40		9.7716E+001	10.000E+00
			100.40		9.7702E+001	10.000E+00
			103.39		9.7722E+001	10.000E+00
			106.41		9.7752E+001	10.000E+00
			109.40		9.7752E+001	10.000E+00
			112.40		9.7720E+001	10.000E+00
			115.40		9.7684E+001	10.000E+00
			118.40		9.7703E+001	10.000E+00
			121.40		9.7873E+001	10.000E+00
			124.39		9.8155E+001	10.000E+00
			127.41		9.8401E+001	10.000E+00
			130.40		9.8567E+001	10.000E+00
			133.40		9.8685E+001	10.000E+00
			136.40		9.8793E+001	10.000E+00
			139.40		9.8940E+001	10.000E+00
			142.40		9.9107E+001	10.000E+00
			145.40		9.9225E+001	10.000E+00
			148.39		9.9284E+001	10.000E+00
			151.41		9.9264E+001	10.000E+00
			154.40		9.9186E+001	10.000E+00
			157.40		9.9068E+001	10.000E+00
			160.40		9.9009E+001	10.000E+00
			163.40		9.9068E+001	10.000E+00
			166.40		9.9029E+001	10.000E+00
			169.39		9.8832E+001	10.000E+00
			172.41		9.8754E+001	10.000E+00
			175.40		9.8822E+001	10.000E+00
			178.40		9.8881E+001	10.000E+00
			181.40		9.8901E+001	10.000E+00
			184.40		9.8940E+001	10.000E+00
			187.40		9.8979E+001	10.000E+00
			190.40		9.8979E+001	10.000E+00
			193.39		9.8921E+001	10.000E+00
			196.41		9.8773E+001	10.000E+00
			199.40		9.8479E+001	10.000E+00
			202.40		9.8103E+001	10.000E+00
			205.40		9.7934E+001	10.000E+00
			208.40		9.8090E+001	10.000E+00
			211.40		9.8273E+001	10.000E+00
			214.39		9.8214E+001	10.000E+00
			217.41		9.7828E+001	10.000E+00
			220.41		9.7054E+001	10.000E+00
			223.40		9.5979E+001	10.000E+00
			226.40		9.4660E+001	10.000E+00
			229.40		9.2895E+001	10.000E+00
			232.40		9.0236E+001	10.000E+00
			235.40		8.6442E+001	10.000E+00
			238.39		8.1755E+001	10.000E+00
			241.41		7.6576E+001	10.000E+00
			244.40		7.1273E+001	10.000E+00
			247.40		6.5945E+001	10.000E+00
			250.40		5.8969E+001	10.000E+00
			253.40		4.7572E+001	10.000E+00
			256.40		3.2971E+001	10.000E+00
			259.40		2.0704E+001	10.000E+00
			262.39		1.3740E+001	10.000E+00
			265.41		1.0487E+001	10.000E+00
			268.40		8.7620E+000	10.000E+00
			271.40		7.6330E+000	10.000E+00
			274.40		6.7940E+000	10.000E+00
			277.40		6.0930E+000	10.000E+00
			280.40		5.4880E+000	10.000E+00
			283.39		4.9770E+000	10.000E+00
			286.41		4.5190E+000	10.000E+00
			289.40		4.0860E+000	10.000E+00
			292.40		3.6870E+000	10.000E+00
			295.40		3.0760E+000	10.000E+00
		END_DATA
	END_SCAN   1
END_SCAN_DATA
