BEGIN_SCAN_DATA
	FORMAT=CC-Export V1.9
	FILE_CREATION_DATE=06-Nov-2017 18:27:04
	LAST_MODIFIED=06-Nov-2017 18:27:04
	BEGIN_SCAN   1
		TASK_NAME=DOSE
		PROGRAM=BistroMath.exe v3.09 (build 580)
		COMMENT=T -15; A -10; TA -15 -5; GA -5
		MEAS_DATE=06-Nov-2017 18:20:50
		LINAC=U04
		MODALITY=X
		ISOCENTER=1000.0
		INPLANE_AXIS=X
		CROSSPLANE_AXIS=Y
		DEPTH_AXIS=Z
		INPLANE_AXIS_DIR=TARGET_GUN
		CROSSPLANE_AXIS_DIR=LEFT_RIGHT
		DEPTH_AXIS_DIR=UP_DOWN
		ENERGY=6.00
		NOMINAL_DMAX=15.00
		SSD=1000.00
		SCD=380.00
		BLOCK=0
		WEDGE_ANGLE=0.00
		FIELD_INPLANE=400.00
		FIELD_CROSSPLANE=400.00
		FIELD_TYPE=RECTANGULAR
		GANTRY=0.00
		GANTRY_UPRIGHT_POSITION=0.00
		GANTRY_ROTATION=CW
		COLL_ANGLE=0.00
		COLL_OFFSET_INPLANE=0.00
		COLL_OFFSET_CROSSPLANE=0.00
		SCAN_DEVICE=STARCHECKMAXI
		ELECTROMETER=DETECTOR_INTERFACE
		RANGE_FIELD=AUTO
		RANGE_REFERENCE=AUTO
		DETECTOR=STARCHECKMAXI
		DETECTOR_SUBCODE=FLEX
		DETECTOR_RADIUS=3.00
		DETECTOR_NAME=-
		DETECTOR_SN=53
		DETECTOR_CALIBRATION=1.00
		DETECTOR_IS_CALIBRATED=0
		DETECTOR_HV=300.00
		DETECTOR_REFERENCE=THIMBLE_CHAMBER
		DETECTOR_REFERENCE_SUBCODE=FLEX
		DETECTOR_REFERENCE_RADIUS=3.00
		DETECTOR_REFERENCE_NAME=-
		DETECTOR_REFERENCE_SN=0
		DETECTOR_REFERENCE_CALIBRATION=1.00
		DETECTOR_REFERENCE_IS_CALIBRATED=0
		DETECTOR_REFERENCE_HV=300.00
		REF_FIELD_DEPTH=100.00
		REF_FIELD_DEFINED=ISOCENTER
		REF_FIELD_INPLANE=100.00
		REF_FIELD_CROSSPLANE=100.00
		REF_OVERSCAN_FACTOR=1.00
		MEAS_PRESET=TIME_PRESET
		PRESSURE=1013.25
		TEMPERATURE=20.00
		NORM_TEMPERATURE=20.00
		CORRECTION_FACTOR=1.00
		EXPECTED_MAX_DOSE_RATE=6.00
		GUID={BAD91BB1-133D-4a50-8F3D-2DCE43AA789C}
		DRAG_AND_DROP_STATUS=0
		SCAN_CURVETYPE=CROSSPLANE_PROFILE
		SCAN_DEPTH=50.00
		SCAN_OFFAXIS_INPLANE=0.00
		SCAN_OFFAXIS_CROSSPLANE=0.00
		SCAN_ANGLE=0.00
		SCAN_DIAGONAL=NOT_DIAGONAL
		SCAN_DIRECTION=POSITIVE
		SCAN_COLOR=0
		MEAS_MEDIUM=WATER
		MEAS_TIME=16.40
		MEAS_UNIT=GY
		BEGIN_DATA
			-210.00		1.3415E+001	10.000E+00
			-207.00		1.8065E+001	10.000E+00
			-204.00		2.8928E+001	10.000E+00
			-201.00		5.0992E+001	10.000E+00
			-198.00		7.5747E+001	10.000E+00
			-195.00		8.9776E+001	10.000E+00
			-192.00		9.4276E+001	10.000E+00
			-189.00		9.6002E+001	10.000E+00
			-186.00		9.6968E+001	10.000E+00
			-183.00		9.7628E+001	10.000E+00
			-180.00		9.8084E+001	10.000E+00
			-177.00		9.8406E+001	10.000E+00
			-174.00		9.8650E+001	10.000E+00
			-171.00		9.8845E+001	10.000E+00
			-168.00		9.9022E+001	10.000E+00
			-165.00		9.9186E+001	10.000E+00
			-162.00		9.9365E+001	10.000E+00
			-159.00		9.9563E+001	10.000E+00
			-156.00		9.9782E+001	10.000E+00
			-153.00		9.9950E+001	10.000E+00
			-150.00		1.0000E+002	10.000E+00
			-147.00		9.9990E+001	10.000E+00
			-144.00		9.9940E+001	10.000E+00
			-141.00		9.9831E+001	10.000E+00
			-138.00		9.9732E+001	10.000E+00
			-135.00		9.9672E+001	10.000E+00
			-132.00		9.9603E+001	10.000E+00
			-129.00		9.9474E+001	10.000E+00
			-126.00		9.9295E+001	10.000E+00
			-123.00		9.8927E+001	10.000E+00
			-120.00		9.7765E+001	10.000E+00
			-117.00		9.5065E+001	10.000E+00
			-114.00		9.1888E+001	10.000E+00
			-111.00		9.0227E+001	10.000E+00
			-108.00		8.9852E+001	10.000E+00
			-105.00		8.9748E+001	10.000E+00
			-102.00		8.9738E+001	10.000E+00
			-99.00		8.9806E+001	10.000E+00
			-96.00		9.0059E+001	10.000E+00
			-93.00		9.1192E+001	10.000E+00
			-90.00		9.3982E+001	10.000E+00
			-87.00		9.7089E+001	10.000E+00
			-84.00		9.8609E+001	10.000E+00
			-81.00		9.8923E+001	10.000E+00
			-78.00		9.8994E+001	10.000E+00
			-75.00		9.9047E+001	10.000E+00
			-72.00		9.9086E+001	10.000E+00
			-69.00		9.9117E+001	10.000E+00
			-66.00		9.9189E+001	10.000E+00
			-63.00		9.9275E+001	10.000E+00
			-60.00		9.9305E+001	10.000E+00
			-57.00		9.9275E+001	10.000E+00
			-54.00		9.9256E+001	10.000E+00
			-51.00		9.9222E+001	10.000E+00
			-48.00		9.9126E+001	10.000E+00
			-45.00		9.9015E+001	10.000E+00
			-42.00		9.8953E+001	10.000E+00
			-39.00		9.8927E+001	10.000E+00
			-36.00		9.8913E+001	10.000E+00
			-33.00		9.8890E+001	10.000E+00
			-30.00		9.8837E+001	10.000E+00
			-27.00		9.8765E+001	10.000E+00
			-24.00		9.8706E+001	10.000E+00
			-21.00		9.8679E+001	10.000E+00
			-18.00		9.8676E+001	10.000E+00
			-15.00		9.8703E+001	10.000E+00
			-12.00		9.8699E+001	10.000E+00
			-9.00		9.8577E+001	10.000E+00
			-6.00		9.8468E+001	10.000E+00
			6.00		9.8384E+001	10.000E+00
			9.00		9.8476E+001	10.000E+00
			12.00		9.8637E+001	10.000E+00
			15.00		9.8659E+001	10.000E+00
			18.00		9.8585E+001	10.000E+00
			21.00		9.8564E+001	10.000E+00
			24.00		9.8582E+001	10.000E+00
			27.00		9.8614E+001	10.000E+00
			30.00		9.8664E+001	10.000E+00
			33.00		9.8699E+001	10.000E+00
			36.00		9.8707E+001	10.000E+00
			39.00		9.8718E+001	10.000E+00
			42.00		9.8777E+001	10.000E+00
			45.00		9.8863E+001	10.000E+00
			48.00		9.8907E+001	10.000E+00
			51.00		9.9017E+001	10.000E+00
			54.00		9.9199E+001	10.000E+00
			57.00		9.9166E+001	10.000E+00
			60.00		9.8864E+001	10.000E+00
			63.00		9.8607E+001	10.000E+00
			66.00		9.8555E+001	10.000E+00
			69.00		9.8564E+001	10.000E+00
			72.00		9.8578E+001	10.000E+00
			75.00		9.8618E+001	10.000E+00
			78.00		9.8648E+001	10.000E+00
			81.00		9.8658E+001	10.000E+00
			84.00		9.8660E+001	10.000E+00
			87.00		9.8661E+001	10.000E+00
			90.00		9.8663E+001	10.000E+00
			93.00		9.8674E+001	10.000E+00
			96.00		9.8691E+001	10.000E+00
			99.00		9.8663E+001	10.000E+00
			102.00		9.8608E+001	10.000E+00
			105.00		9.8589E+001	10.000E+00
			108.00		9.8639E+001	10.000E+00
			111.00		9.8712E+001	10.000E+00
			114.00		9.8769E+001	10.000E+00
			117.00		9.8854E+001	10.000E+00
			120.00		9.8944E+001	10.000E+00
			123.00		9.9021E+001	10.000E+00
			126.00		9.9120E+001	10.000E+00
			129.00		9.9217E+001	10.000E+00
			132.00		9.9315E+001	10.000E+00
			135.00		9.9414E+001	10.000E+00
			138.00		9.9514E+001	10.000E+00
			141.00		9.9593E+001	10.000E+00
			144.00		9.9643E+001	10.000E+00
			147.00		9.9633E+001	10.000E+00
			150.00		9.9543E+001	10.000E+00
			153.00		9.9484E+001	10.000E+00
			156.00		9.9484E+001	10.000E+00
			159.00		9.9454E+001	10.000E+00
			162.00		9.9315E+001	10.000E+00
			165.00		9.9094E+001	10.000E+00
			168.00		9.8883E+001	10.000E+00
			171.00		9.8713E+001	10.000E+00
			174.00		9.8532E+001	10.000E+00
			177.00		9.8274E+001	10.000E+00
			180.00		9.7936E+001	10.000E+00
			183.00		9.7501E+001	10.000E+00
			186.00		9.6914E+001	10.000E+00
			189.00		9.6008E+001	10.000E+00
			192.00		9.4292E+001	10.000E+00
			195.00		8.9513E+001	10.000E+00
			198.00		7.4899E+001	10.000E+00
			201.00		5.0159E+001	10.000E+00
			204.00		2.8727E+001	10.000E+00
			207.00		1.8152E+001	10.000E+00
			210.00		1.3549E+001	10.000E+00
		END_DATA
	END_SCAN   1
END_SCAN_DATA
