BEGIN_SCAN_DATA
	FORMAT=CC-Export V1.9
	FILE_CREATION_DATE=06-Nov-2017 18:27:04
	LAST_MODIFIED=06-Nov-2017 18:27:04
	BEGIN_SCAN   1
		TASK_NAME=DOSE
		PROGRAM=BistroMath.exe v3.09 (build 580)
		COMMENT=T -15; A -10; TA -15 -5; GA -5
		MEAS_DATE=06-Nov-2017 18:20:50
		LINAC=U04
		MODALITY=X
		ISOCENTER=1000.0
		INPLANE_AXIS=X
		CROSSPLANE_AXIS=Y
		DEPTH_AXIS=Z
		INPLANE_AXIS_DIR=TARGET_GUN
		CROSSPLANE_AXIS_DIR=LEFT_RIGHT
		DEPTH_AXIS_DIR=UP_DOWN
		ENERGY=6.00
		NOMINAL_DMAX=15.00
		SSD=1000.00
		SCD=380.00
		BLOCK=0
		WEDGE_ANGLE=0.00
		FIELD_INPLANE=400.00
		FIELD_CROSSPLANE=400.00
		FIELD_TYPE=RECTANGULAR
		GANTRY=0.00
		GANTRY_UPRIGHT_POSITION=0.00
		GANTRY_ROTATION=CW
		COLL_ANGLE=0.00
		COLL_OFFSET_INPLANE=0.00
		COLL_OFFSET_CROSSPLANE=0.00
		SCAN_DEVICE=STARCHECKMAXI
		ELECTROMETER=DETECTOR_INTERFACE
		RANGE_FIELD=AUTO
		RANGE_REFERENCE=AUTO
		DETECTOR=STARCHECKMAXI
		DETECTOR_SUBCODE=FLEX
		DETECTOR_RADIUS=3.00
		DETECTOR_NAME=-
		DETECTOR_SN=53
		DETECTOR_CALIBRATION=1.00
		DETECTOR_IS_CALIBRATED=0
		DETECTOR_HV=300.00
		DETECTOR_REFERENCE=THIMBLE_CHAMBER
		DETECTOR_REFERENCE_SUBCODE=FLEX
		DETECTOR_REFERENCE_RADIUS=3.00
		DETECTOR_REFERENCE_NAME=-
		DETECTOR_REFERENCE_SN=0
		DETECTOR_REFERENCE_CALIBRATION=1.00
		DETECTOR_REFERENCE_IS_CALIBRATED=0
		DETECTOR_REFERENCE_HV=300.00
		REF_FIELD_DEPTH=100.00
		REF_FIELD_DEFINED=ISOCENTER
		REF_FIELD_INPLANE=100.00
		REF_FIELD_CROSSPLANE=100.00
		REF_OVERSCAN_FACTOR=1.00
		MEAS_PRESET=TIME_PRESET
		PRESSURE=1013.25
		TEMPERATURE=20.00
		NORM_TEMPERATURE=20.00
		CORRECTION_FACTOR=1.00
		EXPECTED_MAX_DOSE_RATE=6.00
		GUID={BAD91BB1-133D-4a50-8F3D-2DCE43AA789C}
		DRAG_AND_DROP_STATUS=0
		SCAN_CURVETYPE=INPLANE_PROFILE
		SCAN_DEPTH=50.00
		SCAN_OFFAXIS_INPLANE=0.00
		SCAN_OFFAXIS_CROSSPLANE=0.00
		SCAN_ANGLE=0.00
		SCAN_DIAGONAL=NOT_DIAGONAL
		SCAN_DIRECTION=POSITIVE
		SCAN_COLOR=0
		MEAS_MEDIUM=WATER
		MEAS_TIME=16.40
		MEAS_UNIT=GY
		BEGIN_DATA
			-210.00		1.1302E+001	10.000E+00
			-207.00		1.3642E+001	10.000E+00
			-204.00		1.7881E+001	10.000E+00
			-201.00		3.1561E+001	10.000E+00
			-198.00		5.7904E+001	10.000E+00
			-195.00		8.1766E+001	10.000E+00
			-192.00		9.2058E+001	10.000E+00
			-189.00		9.4871E+001	10.000E+00
			-186.00		9.6188E+001	10.000E+00
			-183.00		9.6998E+001	10.000E+00
			-180.00		9.7563E+001	10.000E+00
			-177.00		9.7660E+001	10.000E+00
			-174.00		9.6215E+001	10.000E+00
			-171.00		9.3044E+001	10.000E+00
			-168.00		9.0429E+001	10.000E+00
			-165.00		8.9665E+001	10.000E+00
			-162.00		8.9754E+001	10.000E+00
			-159.00		9.0009E+001	10.000E+00
			-156.00		9.0364E+001	10.000E+00
			-153.00		9.0730E+001	10.000E+00
			-150.00		9.1286E+001	10.000E+00
			-147.00		9.3215E+001	10.000E+00
			-144.00		9.6599E+001	10.000E+00
			-141.00		9.9119E+001	10.000E+00
			-138.00		9.9861E+001	10.000E+00
			-135.00		9.9911E+001	10.000E+00
			-132.00		9.9851E+001	10.000E+00
			-129.00		9.9733E+001	10.000E+00
			-126.00		9.9604E+001	10.000E+00
			-123.00		9.9515E+001	10.000E+00
			-120.00		9.9475E+001	10.000E+00
			-117.00		9.9406E+001	10.000E+00
			-114.00		9.9277E+001	10.000E+00
			-111.00		9.9188E+001	10.000E+00
			-108.00		9.9149E+001	10.000E+00
			-105.00		9.9079E+001	10.000E+00
			-102.00		9.9020E+001	10.000E+00
			-99.00		9.9010E+001	10.000E+00
			-96.00		9.9050E+001	10.000E+00
			-93.00		9.9069E+001	10.000E+00
			-90.00		9.9069E+001	10.000E+00
			-87.00		9.9040E+001	10.000E+00
			-84.00		9.8962E+001	10.000E+00
			-81.00		9.8861E+001	10.000E+00
			-78.00		9.8805E+001	10.000E+00
			-75.00		9.8892E+001	10.000E+00
			-72.00		9.9030E+001	10.000E+00
			-69.00		9.9099E+001	10.000E+00
			-66.00		9.9168E+001	10.000E+00
			-63.00		9.9257E+001	10.000E+00
			-60.00		9.9307E+001	10.000E+00
			-57.00		9.9297E+001	10.000E+00
			-54.00		9.9287E+001	10.000E+00
			-51.00		9.9208E+001	10.000E+00
			-48.00		9.9158E+001	10.000E+00
			-45.00		9.9089E+001	10.000E+00
			-42.00		9.8985E+001	10.000E+00
			-39.00		9.8907E+001	10.000E+00
			-36.00		9.8824E+001	10.000E+00
			-33.00		9.8680E+001	10.000E+00
			-30.00		9.8512E+001	10.000E+00
			-27.00		9.8411E+001	10.000E+00
			-24.00		9.8382E+001	10.000E+00
			-21.00		9.8410E+001	10.000E+00
			-18.00		9.8471E+001	10.000E+00
			-15.00		9.8626E+001	10.000E+00
			-12.00		9.8742E+001	10.000E+00
			-9.00		9.8603E+001	10.000E+00
			-6.00		9.8410E+001	10.000E+00
			-3.00		9.8302E+001	10.000E+00
			0.00		9.8293E+001	10.000E+00
			3.00		9.8401E+001	10.000E+00
			6.00		9.8552E+001	10.000E+00
			9.00		9.8732E+001	10.000E+00
			12.00		9.8839E+001	10.000E+00
			15.00		9.8847E+001	10.000E+00
			18.00		9.8810E+001	10.000E+00
			21.00		9.8705E+001	10.000E+00
			24.00		9.8686E+001	10.000E+00
			27.00		9.8799E+001	10.000E+00
			30.00		9.8888E+001	10.000E+00
			33.00		9.8951E+001	10.000E+00
			36.00		9.8999E+001	10.000E+00
			39.00		9.9059E+001	10.000E+00
			42.00		9.9129E+001	10.000E+00
			45.00		9.9188E+001	10.000E+00
			48.00		9.9257E+001	10.000E+00
			51.00		9.9307E+001	10.000E+00
			54.00		9.9337E+001	10.000E+00
			57.00		9.9366E+001	10.000E+00
			60.00		9.9337E+001	10.000E+00
			63.00		9.9208E+001	10.000E+00
			66.00		9.9020E+001	10.000E+00
			69.00		9.8901E+001	10.000E+00
			72.00		9.8861E+001	10.000E+00
			75.00		9.8882E+001	10.000E+00
			78.00		9.8907E+001	10.000E+00
			81.00		9.8910E+001	10.000E+00
			84.00		9.8931E+001	10.000E+00
			87.00		9.8938E+001	10.000E+00
			90.00		9.8918E+001	10.000E+00
			93.00		9.8886E+001	10.000E+00
			96.00		9.8827E+001	10.000E+00
			99.00		9.8777E+001	10.000E+00
			102.00		9.8753E+001	10.000E+00
			105.00		9.8781E+001	10.000E+00
			108.00		9.8859E+001	10.000E+00
			111.00		9.8823E+001	10.000E+00
			114.00		9.8774E+001	10.000E+00
			117.00		9.8841E+001	10.000E+00
			120.00		9.8964E+001	10.000E+00
			123.00		9.9158E+001	10.000E+00
			126.00		9.9327E+001	10.000E+00
			129.00		9.9416E+001	10.000E+00
			132.00		9.9525E+001	10.000E+00
			135.00		9.9644E+001	10.000E+00
			138.00		9.9733E+001	10.000E+00
			141.00		9.9842E+001	10.000E+00
			144.00		9.9950E+001	10.000E+00
			147.00		1.0000E+002	10.000E+00
			150.00		9.9970E+001	10.000E+00
			153.00		9.9842E+001	10.000E+00
			156.00		9.9594E+001	10.000E+00
			159.00		9.9267E+001	10.000E+00
			162.00		9.9000E+001	10.000E+00
			165.00		9.8807E+001	10.000E+00
			168.00		9.8578E+001	10.000E+00
			171.00		9.8311E+001	10.000E+00
			174.00		9.7970E+001	10.000E+00
			177.00		9.7616E+001	10.000E+00
			180.00		9.7221E+001	10.000E+00
			183.00		9.6602E+001	10.000E+00
			186.00		9.5783E+001	10.000E+00
			189.00		9.4490E+001	10.000E+00
			192.00		9.1796E+001	10.000E+00
			195.00		8.2296E+001	10.000E+00
			198.00		5.9087E+001	10.000E+00
			201.00		3.2085E+001	10.000E+00
			204.00		1.7480E+001	10.000E+00
			207.00		1.2884E+001	10.000E+00
			210.00		1.0252E+001	10.000E+00
		END_DATA
	END_SCAN   1
END_SCAN_DATA
