BEGIN_SCAN_DATA
	FORMAT=CC-Export V1.9
	FILE_CREATION_DATE=24-aug-2015 18:03:53
	LAST_MODIFIED=24-aug-2015 18:03:53
	BEGIN_SCAN   1
		TASK_NAME=tba PDD Profiles
		PROGRAM=BistroMath.exe v2.80 alpha (build 445)
		COMMENT=MicroDiamond P1
		MEAS_DATE=03-aug-2015 17:10:01
		LINAC=J1 MRL
		MODALITY=X
		ISOCENTER=1435.0
		INPLANE_AXIS=Y
		CROSSPLANE_AXIS=X
		DEPTH_AXIS=Z
		INPLANE_AXIS_DIR=GUN_TARGET
		CROSSPLANE_AXIS_DIR=LEFT_RIGHT
		DEPTH_AXIS_DIR=UP_DOWN
		ENERGY=7.00
		NOMINAL_DMAX=17.00
		SSD=1335.00
		SCD=494.00
		BLOCK=0
		WEDGE_ANGLE=0.00
		FIELD_INPLANE=220.00
		FIELD_CROSSPLANE=572.00
		FIELD_TYPE=RECTANGULAR
		GANTRY=0.00
		GANTRY_UPRIGHT_POSITION=0.00
		GANTRY_ROTATION=CW
		COLL_ANGLE=0.00
		COLL_OFFSET_INPLANE=0.00
		COLL_OFFSET_CROSSPLANE=0.00
		SCAN_DEVICE=MP3
		SCAN_DEVICE_SETUP=BARA_LEFT_RIGHT
		ELECTROMETER=TANDEM
		RANGE_FIELD=LOW
		RANGE_REFERENCE=AUTO
		DETECTOR=DIAMOND_DETECTOR
		DETECTOR_SUBCODE=FLEX
		DETECTOR_RADIUS=0.00
		DETECTOR_NAME=PTW 60003 Diamond
		DETECTOR_SN=0000
		DETECTOR_CALIBRATION=10000000.00
		DETECTOR_IS_CALIBRATED=0
		DETECTOR_HV=300.00
		DETECTOR_REFERENCE=THIMBLE_CHAMBER
		DETECTOR_REFERENCE_SUBCODE=SEMIFLEX
		DETECTOR_REFERENCE_RADIUS=2.75
		DETECTOR_REFERENCE_NAME=PTW 31010 Semiflex
		DETECTOR_REFERENCE_SN=0000
		DETECTOR_REFERENCE_CALIBRATION=300000000.00
		DETECTOR_REFERENCE_IS_CALIBRATED=0
		DETECTOR_REFERENCE_HV=300.00
		REF_FIELD_DEPTH=100.00
		REF_FIELD_DEFINED=ISOCENTER
		REF_FIELD_INPLANE=100.00
		REF_FIELD_CROSSPLANE=100.00
		REF_OVERSCAN_FACTOR=1.00
		REF_SCAN_POSITIONS=-130.00;-125.00;-120.00;-115.00;-110.00;-105.00;-100.00;-95.00;-90.00;-85.00;-80.00;-78.00;-76.00;-74.00;-72.00;-70.00;-68.00;-66.00;-64.00;-62.00;-60.00;-59.00;-58.00;-57.00;-56.00;-55.00;-54.00;-53.00;-52.00;-51.00;-50.00;-49.00;-48.00;-47.00;-46.00;-45.00;-44.00;-43.00;-42.00;-41.00;-40.00;-38.00;-36.00;-34.00;-32.00;-30.00;-28.00;-26.00;-24.00;-22.00;-20.00;-16.00;-12.00;-8.00;-4.00;0.00;4.00;8.00;12.00;16.00;20.00;22.00;24.00;26.00;28.00;30.00;32.00;34.00;36.00;38.00;40.00;41.00;42.00;43.00;44.00;45.00;46.00;47.00;48.00;49.00;50.00;51.00;52.00;53.00;54.00;55.00;56.00;57.00;58.00;59.00;60.00;62.00;64.00;66.00;68.00;70.00;72.00;74.00;76.00;78.00;80.00;85.00;90.00;95.00;100.00;105.00;110.00;115.00;120.00;125.00;130.00;-130.00;-125.00;-120.00;-115.00;-110.00;-105.00;-100.00;-95.00;-90.00;-85.00;-80.00;-78.00;-76.00;-74.00;-72.00;-70.00;-68.00;-66.00;-64.00;-62.00;-60.00;-59.00;-58.00;-57.00;-56.00;-55.00;-54.00;-53.00;-52.00;-51.00;-50.00;-49.00;-48.00;-47.00;-46.00;-45.00;-44.00;-43.00;-42.00;-41.00;-40.00;-38.00;-36.00;-34.00;-32.00;-30.00;-28.00;-26.00;-24.00;-22.00;-20.00;-16.00;-12.00;-8.00;-4.00;0.00;4.00;8.00;12.00;16.00;20.00;22.00;24.00;26.00;28.00;30.00;32.00;34.00;36.00;38.00;40.00;41.00;42.00;43.00;44.00;45.00;46.00;47.00;48.00;49.00;50.00;51.00;52.00;53.00;54.00;55.00;56.00;57.00;58.00;59.00;60.00;62.00;64.00;66.00;68.00;70.00;72.00;74.00;76.00;78.00;80.00;85.00;90.00;95.00;100.00;105.00;110.00;115.00;120.00;125.00;130.00;-130.00;-125.00;-120.00;-115.00;-110.00;-105.00;-100.00;-95.00;-90.00;-85.00;-80.00;-78.00;-76.00;-74.00;-72.00;-70.00;-68.00;-66.00;-64.00;-62.00;-60.00;-59.00;-58.00;-57.00;-56.00;-55.00;-54.00;-53.00;-52.00;-51.00;-50.00;-49.00;-48.00;-47.00;-46.00;-45.00;-44.00;-43.00;-42.00;-41.00;-40.00;-38.00;-36.00;-34.00;-32.00;-30.00;-28.00;-26.00;-24.00;-22.00;-20.00;-16.00;-12.00;-8.00;-4.00;0.00;4.00;8.00;12.00;16.00;20.00;22.00;24.00;26.00;28.00;30.00;32.00;34.00;36.00;38.00;40.00;41.00;42.00;43.00;44.00;45.00;46.00;47.00;48.00;49.00;50.00;51.00;52.00;53.00;54.00;55.00;56.00;57.00;58.00;59.00;60.00;62.00;64.00;66.00;68.00;70.00;72.00;74.00;76.00;78.00;80.00;85.00;90.00;95.00;100.00;105.00;110.00;115.00;120.00;125.00;130.00;
		SCAN_SPEEDS=20.00;5.00;40.00;5.00;100.00;5.00;270.00;5.00;20.00;5.00;40.00;5.00;100.00;5.00;270.00;5.00;20.00;5.00;40.00;5.00;100.00;5.00;270.00;5.00;
		MEAS_PRESET=REFERENCE_DOSEMETER
		PRESSURE=1013.25
		TEMPERATURE=20.00
		NORM_TEMPERATURE=20.00
		CORRECTION_FACTOR=1.00
		EXPECTED_MAX_DOSE_RATE=1.00
		GUID={BAD91BB1-133D-4a50-8F3D-2DCE43AA789C}
		DRAG_AND_DROP_STATUS=0
		SCAN_CURVETYPE=CROSSPLANE_PROFILE
		SCAN_DEPTH=17.00
		SCAN_OFFAXIS_INPLANE=0.00
		SCAN_OFFAXIS_CROSSPLANE=0.00
		SCAN_ANGLE=0.00
		SCAN_DIAGONAL=FIRST_DIAGONAL
		SCAN_DIRECTION=POSITIVE
		SCAN_COLOR=0
		MEAS_MEDIUM=PMMA
		MEAS_TIME=1.00
		MEAS_UNIT=A.U.
		DELAY_TIMES=10.00;0.50;150.00;0.00;270.00;0.00;10.00;0.50;150.00;0.00;270.00;0.00;10.00;0.50;150.00;0.00;270.00;0.00;
		BEGIN_DATA
			335.26		1.4851E+000	10.000E+00
			330.21		1.6128E+000	10.000E+00
			325.16		1.7218E+000	10.000E+00
			320.11		1.8940E+000	10.000E+00
			318.10		1.9371E+000	10.000E+00
			316.08		2.0034E+000	10.000E+00
			314.06		2.1111E+000	10.000E+00
			312.04		2.1738E+000	10.000E+00
			310.02		2.2619E+000	10.000E+00
			308.00		2.3245E+000	10.000E+00
			305.98		2.4536E+000	10.000E+00
			303.96		2.5182E+000	10.000E+00
			301.94		2.6666E+000	10.000E+00
			299.93		2.7525E+000	10.000E+00
			298.92		2.8626E+000	10.000E+00
			297.91		2.9676E+000	10.000E+00
			296.90		3.0993E+000	10.000E+00
			295.89		3.2042E+000	10.000E+00
			294.88		3.4222E+000	10.000E+00
			293.87		3.7666E+000	10.000E+00
			292.86		4.3046E+000	10.000E+00
			291.85		5.4454E+000	10.000E+00
			290.84		7.6835E+000	10.000E+00
			289.83		1.2128E+001	10.000E+00
			288.82		1.9098E+001	10.000E+00
			287.81		2.6090E+001	10.000E+00
			286.80		3.1113E+001	10.000E+00
			285.79		3.4433E+001	10.000E+00
			284.78		3.6589E+001	10.000E+00
			283.77		3.8388E+001	10.000E+00
			282.76		3.9551E+001	10.000E+00
			281.76		4.0599E+001	10.000E+00
			280.75		4.1167E+001	10.000E+00
			279.74		4.2142E+001	10.000E+00
			277.72		4.3051E+001	10.000E+00
			275.70		4.3762E+001	10.000E+00
			273.68		4.4385E+001	10.000E+00
			271.66		4.4965E+001	10.000E+00
			269.64		4.5438E+001	10.000E+00
			267.62		4.5850E+001	10.000E+00
			265.60		4.6087E+001	10.000E+00
			263.59		4.6602E+001	10.000E+00
			261.57		4.7224E+001	10.000E+00
			259.55		4.7246E+001	10.000E+00
			255.51		4.8062E+001	10.000E+00
			251.47		4.8664E+001	10.000E+00
			247.43		4.9395E+001	10.000E+00
			243.40		5.0106E+001	10.000E+00
			239.36		5.0862E+001	10.000E+00
			235.32		5.1376E+001	10.000E+00
			231.28		5.2070E+001	10.000E+00
			227.25		5.2695E+001	10.000E+00
			223.21		5.3432E+001	10.000E+00
			219.17		5.4170E+001	10.000E+00
			215.13		5.4861E+001	10.000E+00
			211.09		5.5374E+001	10.000E+00
			207.06		5.6092E+001	10.000E+00
			203.02		5.6978E+001	10.000E+00
			198.98		5.7410E+001	10.000E+00
			194.94		5.8447E+001	10.000E+00
			190.91		5.9008E+001	10.000E+00
			186.87		5.9764E+001	10.000E+00
			182.83		6.0575E+001	10.000E+00
			178.79		6.1373E+001	10.000E+00
			174.75		6.2128E+001	10.000E+00
			170.72		6.2690E+001	10.000E+00
			166.68		6.3609E+001	10.000E+00
			162.64		6.4481E+001	10.000E+00
			158.60		6.5280E+001	10.000E+00
			154.57		6.5991E+001	10.000E+00
			150.53		6.7049E+001	10.000E+00
			146.49		6.7653E+001	10.000E+00
			142.45		6.8624E+001	10.000E+00
			138.41		6.9685E+001	10.000E+00
			134.38		7.0653E+001	10.000E+00
			130.34		7.1259E+001	10.000E+00
			126.30		7.2239E+001	10.000E+00
			122.26		7.3286E+001	10.000E+00
			118.23		7.4087E+001	10.000E+00
			114.19		7.4971E+001	10.000E+00
			110.15		7.6260E+001	10.000E+00
			106.11		7.7041E+001	10.000E+00
			104.98		7.7455E+001	10.000E+00
			102.07		7.8161E+001	10.000E+00
			100.94		7.8322E+001	10.000E+00
			96.91		7.9459E+001	10.000E+00
			92.87		8.0597E+001	10.000E+00
			88.83		8.1536E+001	10.000E+00
			84.79		8.2669E+001	10.000E+00
			80.76		8.3567E+001	10.000E+00
			76.72		8.4600E+001	10.000E+00
			72.68		8.5505E+001	10.000E+00
			68.64		8.6812E+001	10.000E+00
			64.60		8.7934E+001	10.000E+00
			60.57		8.8867E+001	10.000E+00
			56.53		9.0051E+001	10.000E+00
			52.49		9.0976E+001	10.000E+00
			48.45		9.1926E+001	10.000E+00
			44.42		9.3031E+001	10.000E+00
			40.38		9.3913E+001	10.000E+00
			36.34		9.4917E+001	10.000E+00
			32.30		9.5665E+001	10.000E+00
			28.26		9.6509E+001	10.000E+00
			24.23		9.7383E+001	10.000E+00
			20.19		9.8156E+001	10.000E+00
			16.15		9.8634E+001	10.000E+00
			12.11		9.9130E+001	10.000E+00
			8.08		9.9589E+001	10.000E+00
			4.04		9.9858E+001	10.000E+00
			0.00		1.0004E+002	10.000E+00
			-4.04		9.9804E+001	10.000E+00
			-8.08		9.9720E+001	10.000E+00
			-12.11		9.9701E+001	10.000E+00
			-16.15		9.9266E+001	10.000E+00
			-20.19		9.8776E+001	10.000E+00
			-24.23		9.8196E+001	10.000E+00
			-28.26		9.7375E+001	10.000E+00
			-32.30		9.6634E+001	10.000E+00
			-36.34		9.5909E+001	10.000E+00
			-40.38		9.4734E+001	10.000E+00
			-44.42		9.4028E+001	10.000E+00
			-48.45		9.3041E+001	10.000E+00
			-52.49		9.2019E+001	10.000E+00
			-56.53		9.0884E+001	10.000E+00
			-60.57		8.9833E+001	10.000E+00
			-64.60		8.8938E+001	10.000E+00
			-68.64		8.7866E+001	10.000E+00
			-72.68		8.6649E+001	10.000E+00
			-76.72		8.5553E+001	10.000E+00
			-80.76		8.4289E+001	10.000E+00
			-84.79		8.3338E+001	10.000E+00
			-88.83		8.2413E+001	10.000E+00
			-92.87		8.1238E+001	10.000E+00
			-96.91		8.0120E+001	10.000E+00
			-100.94		7.8940E+001	10.000E+00
			-104.98		7.7971E+001	10.000E+00
			-109.02		7.7177E+001	10.000E+00
			-113.06		7.6040E+001	10.000E+00
			-117.10		7.5158E+001	10.000E+00
			-121.13		7.4042E+001	10.000E+00
			-125.17		7.2732E+001	10.000E+00
			-129.21		7.2136E+001	10.000E+00
			-133.25		7.1400E+001	10.000E+00
			-137.28		7.0248E+001	10.000E+00
			-141.32		6.9404E+001	10.000E+00
			-145.36		6.8531E+001	10.000E+00
			-149.40		6.7556E+001	10.000E+00
			-153.44		6.6643E+001	10.000E+00
			-157.47		6.5795E+001	10.000E+00
			-161.51		6.4766E+001	10.000E+00
			-165.55		6.4144E+001	10.000E+00
			-169.59		6.3372E+001	10.000E+00
			-173.62		6.2386E+001	10.000E+00
			-177.66		6.1700E+001	10.000E+00
			-181.70		6.0599E+001	10.000E+00
			-185.74		6.0085E+001	10.000E+00
			-189.78		5.9234E+001	10.000E+00
			-193.81		5.8607E+001	10.000E+00
			-197.85		5.7751E+001	10.000E+00
			-201.89		5.7258E+001	10.000E+00
			-205.93		5.6337E+001	10.000E+00
			-209.96		5.5734E+001	10.000E+00
			-214.00		5.4945E+001	10.000E+00
			-218.04		5.4321E+001	10.000E+00
			-222.08		5.3592E+001	10.000E+00
			-226.12		5.2802E+001	10.000E+00
			-230.15		5.2310E+001	10.000E+00
			-234.19		5.1432E+001	10.000E+00
			-238.23		5.0726E+001	10.000E+00
			-242.27		5.0105E+001	10.000E+00
			-246.30		4.9441E+001	10.000E+00
			-250.34		4.8864E+001	10.000E+00
			-254.38		4.8161E+001	10.000E+00
			-258.42		4.7434E+001	10.000E+00
			-260.44		4.7173E+001	10.000E+00
			-262.46		4.6604E+001	10.000E+00
			-264.47		4.6300E+001	10.000E+00
			-266.49		4.5872E+001	10.000E+00
			-268.51		4.5551E+001	10.000E+00
			-270.53		4.4953E+001	10.000E+00
			-272.55		4.4403E+001	10.000E+00
			-274.57		4.3749E+001	10.000E+00
			-276.59		4.3028E+001	10.000E+00
			-278.61		4.1886E+001	10.000E+00
			-279.62		4.1287E+001	10.000E+00
			-280.63		4.0195E+001	10.000E+00
			-281.63		3.9040E+001	10.000E+00
			-282.64		3.7724E+001	10.000E+00
			-283.65		3.5837E+001	10.000E+00
			-284.66		3.2817E+001	10.000E+00
			-285.67		2.8873E+001	10.000E+00
			-286.68		2.3182E+001	10.000E+00
			-287.69		1.6395E+001	10.000E+00
			-288.70		1.0680E+001	10.000E+00
			-289.71		7.0260E+000	10.000E+00
			-290.72		5.0684E+000	10.000E+00
			-291.73		4.1094E+000	10.000E+00
			-292.74		3.5344E+000	10.000E+00
			-293.75		3.2533E+000	10.000E+00
			-294.76		3.0821E+000	10.000E+00
			-295.77		2.9512E+000	10.000E+00
			-296.78		2.7633E+000	10.000E+00
			-297.79		2.6968E+000	10.000E+00
			-298.80		2.6112E+000	10.000E+00
			-300.81		2.4848E+000	10.000E+00
			-302.83		2.3348E+000	10.000E+00
			-304.85		2.2920E+000	10.000E+00
			-306.87		2.1653E+000	10.000E+00
			-308.89		2.0581E+000	10.000E+00
			-310.91		1.9921E+000	10.000E+00
			-312.93		1.9080E+000	10.000E+00
			-314.95		1.8223E+000	10.000E+00
			-316.97		1.7809E+000	10.000E+00
			-318.98		1.7151E+000	10.000E+00
			-324.03		1.6079E+000	10.000E+00
			-329.08		1.4805E+000	10.000E+00
		END_DATA
	END_SCAN   1
END_SCAN_DATA
