BEGIN_SCAN_DATA
	FORMAT=CC-Export V1.9
	FILE_CREATION_DATE=19-Aug-2015 08:48:19
	LAST_MODIFIED=19-Aug-2015 08:48:19
	BEGIN_SCAN   1
		TASK_NAME=tba PDD Profiles
		PROGRAM=BistroMath.exe v2.80 alpha (build 443)
		COMMENT=MicroDiamond P2
		MEAS_DATE=04-Aug-2015 16:22:49
		LINAC=J1 MRL
		MODALITY=X
		ISOCENTER=1435.0
		INPLANE_AXIS=Y
		CROSSPLANE_AXIS=X
		DEPTH_AXIS=Z
		INPLANE_AXIS_DIR=GUN_TARGET
		CROSSPLANE_AXIS_DIR=LEFT_RIGHT
		DEPTH_AXIS_DIR=UP_DOWN
		ENERGY=7.00
		NOMINAL_DMAX=17.00
		SSD=1335.00
		SCD=494.00
		BLOCK=0
		WEDGE_ANGLE=0.00
		FIELD_INPLANE=220.00
		FIELD_CROSSPLANE=572.00
		FIELD_TYPE=RECTANGULAR
		GANTRY=0.00
		GANTRY_UPRIGHT_POSITION=0.00
		GANTRY_ROTATION=CW
		COLL_ANGLE=0.00
		COLL_OFFSET_INPLANE=0.00
		COLL_OFFSET_CROSSPLANE=0.00
		SCAN_DEVICE=MP3
		SCAN_DEVICE_SETUP=BARA_LEFT_RIGHT
		ELECTROMETER=TANDEM
		RANGE_FIELD=LOW
		RANGE_REFERENCE=AUTO
		DETECTOR=DIAMOND_DETECTOR
		DETECTOR_SUBCODE=FLEX
		DETECTOR_RADIUS=0.00
		DETECTOR_NAME=PTW 60003 Diamond
		DETECTOR_SN=0000
		DETECTOR_CALIBRATION=10000000.00
		DETECTOR_IS_CALIBRATED=0
		DETECTOR_HV=300.00
		DETECTOR_REFERENCE=THIMBLE_CHAMBER
		DETECTOR_REFERENCE_SUBCODE=SEMIFLEX
		DETECTOR_REFERENCE_RADIUS=2.75
		DETECTOR_REFERENCE_NAME=PTW 31010 Semiflex
		DETECTOR_REFERENCE_SN=0000
		DETECTOR_REFERENCE_CALIBRATION=300000000.00
		DETECTOR_REFERENCE_IS_CALIBRATED=0
		DETECTOR_REFERENCE_HV=300.00
		REF_FIELD_DEPTH=100.00
		REF_FIELD_DEFINED=ISOCENTER
		REF_FIELD_INPLANE=100.00
		REF_FIELD_CROSSPLANE=100.00
		REF_OVERSCAN_FACTOR=1.00
		REF_SCAN_POSITIONS=-130.00;-125.00;-120.00;-115.00;-110.00;-105.00;-100.00;-95.00;-90.00;-85.00;-80.00;-78.00;-76.00;-74.00;-72.00;-70.00;-68.00;-66.00;-64.00;-62.00;-60.00;-59.00;-58.00;-57.00;-56.00;-55.00;-54.00;-53.00;-52.00;-51.00;-50.00;-49.00;-48.00;-47.00;-46.00;-45.00;-44.00;-43.00;-42.00;-41.00;-40.00;-38.00;-36.00;-34.00;-32.00;-30.00;-28.00;-26.00;-24.00;-22.00;-20.00;-16.00;-12.00;-8.00;-4.00;0.00;4.00;8.00;12.00;16.00;20.00;22.00;24.00;26.00;28.00;30.00;32.00;34.00;36.00;38.00;40.00;41.00;42.00;43.00;44.00;45.00;46.00;47.00;48.00;49.00;50.00;51.00;52.00;53.00;54.00;55.00;56.00;57.00;58.00;59.00;60.00;62.00;64.00;66.00;68.00;70.00;72.00;74.00;76.00;78.00;80.00;85.00;90.00;95.00;100.00;105.00;110.00;115.00;120.00;125.00;130.00;-130.00;-125.00;-120.00;-115.00;-110.00;-105.00;-100.00;-95.00;-90.00;-85.00;-80.00;-78.00;-76.00;-74.00;-72.00;-70.00;-68.00;-66.00;-64.00;-62.00;-60.00;-59.00;-58.00;-57.00;-56.00;-55.00;-54.00;-53.00;-52.00;-51.00;-50.00;-49.00;-48.00;-47.00;-46.00;-45.00;-44.00;-43.00;-42.00;-41.00;-40.00;-38.00;-36.00;-34.00;-32.00;-30.00;-28.00;-26.00;-24.00;-22.00;-20.00;-16.00;-12.00;-8.00;-4.00;0.00;4.00;8.00;12.00;16.00;20.00;22.00;24.00;26.00;28.00;30.00;32.00;34.00;36.00;38.00;40.00;41.00;42.00;43.00;44.00;45.00;46.00;47.00;48.00;49.00;50.00;51.00;52.00;53.00;54.00;55.00;56.00;57.00;58.00;59.00;60.00;62.00;64.00;66.00;68.00;70.00;72.00;74.00;76.00;78.00;80.00;85.00;90.00;95.00;100.00;105.00;110.00;115.00;120.00;125.00;130.00;-130.00;-125.00;-120.00;-115.00;-110.00;-105.00;-100.00;-95.00;-90.00;-85.00;-80.00;-78.00;-76.00;-74.00;-72.00;-70.00;-68.00;-66.00;-64.00;-62.00;-60.00;-59.00;-58.00;-57.00;-56.00;-55.00;-54.00;-53.00;-52.00;-51.00;-50.00;-49.00;-48.00;-47.00;-46.00;-45.00;-44.00;-43.00;-42.00;-41.00;-40.00;-38.00;-36.00;-34.00;-32.00;-30.00;-28.00;-26.00;-24.00;-22.00;-20.00;-16.00;-12.00;-8.00;-4.00;0.00;4.00;8.00;12.00;16.00;20.00;22.00;24.00;26.00;28.00;30.00;32.00;34.00;36.00;38.00;40.00;41.00;42.00;43.00;44.00;45.00;46.00;47.00;48.00;49.00;50.00;51.00;52.00;53.00;54.00;55.00;56.00;57.00;58.00;59.00;60.00;62.00;64.00;66.00;68.00;70.00;72.00;74.00;76.00;78.00;80.00;85.00;90.00;95.00;100.00;105.00;110.00;115.00;120.00;125.00;130.00;-130.00;-125.00;-120.00;-115.00;-110.00;-105.00;-100.00;-95.00;-90.00;-85.00;-80.00;-78.00;-76.00;-74.00;-72.00;-70.00;-68.00;-66.00;-64.00;-62.00;-60.00;-59.00;-58.00;-57.00;-56.00;-55.00;-54.00;-53.00;-52.00;-51.00;-50.00;-49.00;-48.00;-47.00;-46.00;-45.00;-44.00;-43.00;-42.00;-41.00;-40.00;-38.00;-36.00;-34.00;-32.00;-30.00;-28.00;-26.00;-24.00;-22.00;-20.00;-16.00;-12.00;-8.00;-4.00;0.00;4.00;8.00;12.00;16.00;20.00;22.00;24.00;26.00;28.00;30.00;32.00;34.00;36.00;38.00;40.00;41.00;42.00;43.00;44.00;45.00;46.00;47.00;48.00;49.00;50.00;51.00;52.00;53.00;54.00;55.00;56.00;57.00;58.00;59.00;60.00;62.00;64.00;66.00;68.00;70.00;72.00;74.00;76.00;78.00;80.00;85.00;90.00;95.00;100.00;105.00;110.00;115.00;120.00;125.00;130.00;-130.00;-125.00;-120.00;-115.00;-110.00;-105.00;-100.00;-95.00;-90.00;-85.00;-80.00;-78.00;-76.00;-74.00;-72.00;-70.00;-68.00;-66.00;-64.00;-62.00;-60.00;-59.00;-58.00;-57.00;-56.00;-55.00;-54.00;-53.00;-52.00;-51.00;-50.00;-49.00;-48.00;-47.00;-46.00;-45.00;-44.00;-43.00;-42.00;-41.00;-40.00;-38.00;-36.00;-34.00;-32.00;-30.00;-28.00;-26.00;-24.00;-22.00;-20.00;-16.00;-12.00;-8.00;-4.00;0.00;4.00;8.00;12.00;16.00;20.00;22.00;24.00;26.00;28.00;30.00;32.00;34.00;36.00;38.00;40.00;41.00;42.00;43.00;44.00;45.00;46.00;47.00;48.00;49.00;50.00;51.00;52.00;53.00;54.00;55.00;56.00;57.00;58.00;59.00;60.00;62.00;64.00;66.00;68.00;70.00;72.00;74.00;76.00;78.00;80.00;85.00;90.00;95.00;100.00;105.00;110.00;115.00;120.00;125.00;130.00;
		SCAN_SPEEDS=20.00;5.00;40.00;5.00;100.00;5.00;270.00;5.00;20.00;5.00;40.00;5.00;100.00;5.00;270.00;5.00;20.00;5.00;40.00;5.00;100.00;5.00;270.00;5.00;20.00;5.00;40.00;5.00;100.00;5.00;270.00;5.00;20.00;5.00;40.00;5.00;100.00;5.00;270.00;5.00;
		MEAS_PRESET=REFERENCE_DOSEMETER
		PRESSURE=1013.25
		TEMPERATURE=20.00
		NORM_TEMPERATURE=22.00
		CORRECTION_FACTOR=1.00
		EXPECTED_MAX_DOSE_RATE=1.00
		GUID={BAD91BB1-133D-4a50-8F3D-2DCE43AA789C}
		DRAG_AND_DROP_STATUS=0
		SCAN_CURVETYPE=PDD
		SCAN_DEPTH=17.00
		SCAN_OFFAXIS_INPLANE=0.00
		SCAN_OFFAXIS_CROSSPLANE=0.00
		SCAN_ANGLE=0.00
		SCAN_DIAGONAL=FIRST_DIAGONAL
		SCAN_DIRECTION=POSITIVE
		SCAN_COLOR=0
		MEAS_MEDIUM=PMMA
		MEAS_TIME=1.00
		MEAS_UNIT=A.U.
		DELAY_TIMES=10.00;0.50;150.00;0.00;270.00;0.00;10.00;0.50;150.00;0.00;270.00;0.00;10.00;0.50;150.00;0.00;270.00;0.00;10.00;0.50;150.00;0.00;270.00;0.00;10.00;0.50;150.00;0.00;270.00;0.00;
		BEGIN_DATA
			-339.17		1.3960E+000	10.000E+00
			-334.13		1.4832E+000	10.000E+00
			-329.08		1.6107E+000	10.000E+00
			-324.03		1.7196E+000	10.000E+00
			-318.98		1.8915E+000	10.000E+00
			-316.97		1.9346E+000	10.000E+00
			-314.95		2.0008E+000	10.000E+00
			-312.93		2.1084E+000	10.000E+00
			-310.91		2.1710E+000	10.000E+00
			-308.89		2.2590E+000	10.000E+00
			-306.87		2.3215E+000	10.000E+00
			-304.85		2.4504E+000	10.000E+00
			-302.83		2.5150E+000	10.000E+00
			-300.81		2.6631E+000	10.000E+00
			-298.80		2.7490E+000	10.000E+00
			-297.79		2.8589E+000	10.000E+00
			-296.78		2.9637E+000	10.000E+00
			-295.77		3.0953E+000	10.000E+00
			-294.76		3.2000E+000	10.000E+00
			-293.75		3.4177E+000	10.000E+00
			-292.74		3.7617E+000	10.000E+00
			-291.73		4.2990E+000	10.000E+00
			-290.72		5.4383E+000	10.000E+00
			-289.71		7.6735E+000	10.000E+00
			-288.70		1.2112E+001	10.000E+00
			-287.69		1.9074E+001	10.000E+00
			-286.68		2.6056E+001	10.000E+00
			-285.67		3.1072E+001	10.000E+00
			-284.66		3.4388E+001	10.000E+00
			-283.65		3.6541E+001	10.000E+00
			-282.64		3.8338E+001	10.000E+00
			-281.63		3.9500E+001	10.000E+00
			-280.63		4.0547E+001	10.000E+00
			-279.62		4.1113E+001	10.000E+00
			-278.61		4.2087E+001	10.000E+00
			-276.59		4.2995E+001	10.000E+00
			-274.57		4.3705E+001	10.000E+00
			-272.55		4.4327E+001	10.000E+00
			-270.53		4.4907E+001	10.000E+00
			-268.51		4.5379E+001	10.000E+00
			-266.49		4.5791E+001	10.000E+00
			-264.47		4.6027E+001	10.000E+00
			-262.46		4.6542E+001	10.000E+00
			-260.44		4.7162E+001	10.000E+00
			-258.42		4.7185E+001	10.000E+00
			-254.38		4.7999E+001	10.000E+00
			-250.34		4.8601E+001	10.000E+00
			-246.30		4.9331E+001	10.000E+00
			-242.27		5.0041E+001	10.000E+00
			-238.23		5.0796E+001	10.000E+00
			-234.19		5.1309E+001	10.000E+00
			-230.15		5.2002E+001	10.000E+00
			-226.12		5.2627E+001	10.000E+00
			-222.08		5.3363E+001	10.000E+00
			-218.04		5.4100E+001	10.000E+00
			-214.00		5.4790E+001	10.000E+00
			-209.96		5.5302E+001	10.000E+00
			-205.93		5.6019E+001	10.000E+00
			-201.89		5.6904E+001	10.000E+00
			-197.85		5.7335E+001	10.000E+00
			-193.81		5.8371E+001	10.000E+00
			-189.78		5.8932E+001	10.000E+00
			-185.74		5.9687E+001	10.000E+00
			-181.70		6.0496E+001	10.000E+00
			-177.66		6.1294E+001	10.000E+00
			-173.62		6.2048E+001	10.000E+00
			-169.59		6.2608E+001	10.000E+00
			-165.55		6.3526E+001	10.000E+00
			-161.51		6.4397E+001	10.000E+00
			-157.47		6.5195E+001	10.000E+00
			-153.44		6.5905E+001	10.000E+00
			-149.40		6.6962E+001	10.000E+00
			-145.36		6.7565E+001	10.000E+00
			-141.32		6.8535E+001	10.000E+00
			-137.28		6.9595E+001	10.000E+00
			-133.25		7.0561E+001	10.000E+00
			-129.21		7.1166E+001	10.000E+00
			-125.17		7.2145E+001	10.000E+00
			-121.13		7.3190E+001	10.000E+00
			-117.10		7.3990E+001	10.000E+00
			-113.06		7.4873E+001	10.000E+00
			-109.02		7.6161E+001	10.000E+00
			-104.98		7.7139E+001	10.000E+00
			-100.94		7.8073E+001	10.000E+00
			-96.91		7.9178E+001	10.000E+00
			-92.87		8.0363E+001	10.000E+00
			-88.83		8.1265E+001	10.000E+00
			-84.79		8.2402E+001	10.000E+00
			-80.76		8.3298E+001	10.000E+00
			-76.72		8.4370E+001	10.000E+00
			-72.68		8.5193E+001	10.000E+00
			-68.64		8.6556E+001	10.000E+00
			-64.60		8.7666E+001	10.000E+00
			-60.57		8.8591E+001	10.000E+00
			-56.53		8.9752E+001	10.000E+00
			-52.49		9.0733E+001	10.000E+00
			-48.45		9.1633E+001	10.000E+00
			-44.42		9.2784E+001	10.000E+00
			-40.38		9.3610E+001	10.000E+00
			-36.34		9.4700E+001	10.000E+00
			-32.30		9.5412E+001	10.000E+00
			-28.26		9.6264E+001	10.000E+00
			-24.23		9.7119E+001	10.000E+00
			-20.19		9.7969E+001	10.000E+00
			-16.15		9.8419E+001	10.000E+00
			-12.11		9.8902E+001	10.000E+00
			-8.08		9.9422E+001	10.000E+00
			-4.04		9.9666E+001	10.000E+00
			0.00		9.9924E+001	10.000E+00
			4.04		9.9718E+001	10.000E+00
			8.08		9.9554E+001	10.000E+00
			12.11		9.9599E+001	10.000E+00
			16.15		9.9225E+001	10.000E+00
			20.19		9.8693E+001	10.000E+00
			24.23		9.8175E+001	10.000E+00
			28.26		9.7357E+001	10.000E+00
			32.30		9.6576E+001	10.000E+00
			36.34		9.5957E+001	10.000E+00
			40.38		9.4693E+001	10.000E+00
			44.42		9.4004E+001	10.000E+00
			48.45		9.3048E+001	10.000E+00
			52.49		9.2067E+001	10.000E+00
			56.53		9.0885E+001	10.000E+00
			60.57		8.9855E+001	10.000E+00
			64.60		8.8970E+001	10.000E+00
			68.64		8.7881E+001	10.000E+00
			72.68		8.6698E+001	10.000E+00
			76.72		8.5584E+001	10.000E+00
			80.76		8.4356E+001	10.000E+00
			84.79		8.3304E+001	10.000E+00
			88.83		8.2456E+001	10.000E+00
			92.87		8.1297E+001	10.000E+00
			100.94		7.8820E+001	10.000E+00
			104.98		7.7852E+001	10.000E+00
			109.02		7.7059E+001	10.000E+00
			113.06		7.5924E+001	10.000E+00
			117.10		7.5044E+001	10.000E+00
			121.13		7.3929E+001	10.000E+00
			125.17		7.2621E+001	10.000E+00
			129.21		7.2026E+001	10.000E+00
			133.25		7.1291E+001	10.000E+00
			137.28		7.0141E+001	10.000E+00
			141.32		6.9298E+001	10.000E+00
			145.36		6.8426E+001	10.000E+00
			149.40		6.7453E+001	10.000E+00
			153.44		6.6541E+001	10.000E+00
			157.47		6.5695E+001	10.000E+00
			161.51		6.4667E+001	10.000E+00
			165.55		6.4046E+001	10.000E+00
			169.59		6.3275E+001	10.000E+00
			173.62		6.2291E+001	10.000E+00
			177.66		6.1605E+001	10.000E+00
			181.70		6.0507E+001	10.000E+00
			185.74		5.9994E+001	10.000E+00
			189.78		5.9144E+001	10.000E+00
			193.81		5.8518E+001	10.000E+00
			197.85		5.7663E+001	10.000E+00
			201.89		5.7171E+001	10.000E+00
			205.93		5.6251E+001	10.000E+00
			209.96		5.5649E+001	10.000E+00
			214.00		5.4861E+001	10.000E+00
			218.04		5.4238E+001	10.000E+00
			222.08		5.3510E+001	10.000E+00
			226.12		5.2722E+001	10.000E+00
			230.15		5.2230E+001	10.000E+00
			234.19		5.1353E+001	10.000E+00
			238.23		5.0649E+001	10.000E+00
			242.27		5.0028E+001	10.000E+00
			246.30		4.9366E+001	10.000E+00
			250.34		4.8789E+001	10.000E+00
			254.38		4.8087E+001	10.000E+00
			258.42		4.7361E+001	10.000E+00
			260.44		4.7101E+001	10.000E+00
			262.46		4.6533E+001	10.000E+00
			264.47		4.6229E+001	10.000E+00
			266.49		4.5802E+001	10.000E+00
			268.51		4.5482E+001	10.000E+00
			270.53		4.4884E+001	10.000E+00
			272.55		4.4336E+001	10.000E+00
			274.57		4.3682E+001	10.000E+00
			276.59		4.2962E+001	10.000E+00
			278.61		4.1822E+001	10.000E+00
			279.62		4.1224E+001	10.000E+00
			280.63		4.0134E+001	10.000E+00
			281.63		3.8980E+001	10.000E+00
			282.64		3.7667E+001	10.000E+00
			283.65		3.5783E+001	10.000E+00
			284.66		3.2767E+001	10.000E+00
			285.67		2.8829E+001	10.000E+00
			286.68		2.3147E+001	10.000E+00
			287.69		1.6370E+001	10.000E+00
			288.70		1.0664E+001	10.000E+00
			289.71		7.0153E+000	10.000E+00
			290.72		5.0606E+000	10.000E+00
			291.73		4.1031E+000	10.000E+00
			292.74		3.5290E+000	10.000E+00
			293.75		3.2483E+000	10.000E+00
			294.76		3.0773E+000	10.000E+00
			295.77		2.9467E+000	10.000E+00
			296.78		2.7591E+000	10.000E+00
			297.79		2.6927E+000	10.000E+00
			298.80		2.6073E+000	10.000E+00
			300.81		2.4810E+000	10.000E+00
			302.83		2.3313E+000	10.000E+00
			304.85		2.2885E+000	10.000E+00
			306.87		2.1620E+000	10.000E+00
			308.89		2.0549E+000	10.000E+00
			310.91		1.9891E+000	10.000E+00
			312.93		1.9051E+000	10.000E+00
			314.95		1.8195E+000	10.000E+00
			316.97		1.7782E+000	10.000E+00
			318.98		1.7125E+000	10.000E+00
			324.03		1.6054E+000	10.000E+00
			329.08		1.4782E+000	10.000E+00
		END_DATA
	END_SCAN   1
END_SCAN_DATA
