BEGIN_SCAN_DATA
	FORMAT=CC-Export V1.9                  
	FILE_CREATION_DATE=18-Aug-2015 19:35:42
	LAST_MODIFIED=18-Aug-2015 19:35:42
	BEGIN_SCAN  1
		TASK_NAME=tba PDD Profiles
		PROGRAM=tbaScan
		COMMENT=MicroDiamond P1
		MEAS_DATE=03-Aug-2015 17:00:17
		LINAC=J1 MRL
		MODALITY=X
		ISOCENTER=1435.00
		INPLANE_AXIS=Y
		CROSSPLANE_AXIS=X
		DEPTH_AXIS=Z
		INPLANE_AXIS_DIR=TARGET_GUN
		CROSSPLANE_AXIS_DIR=LEFT_RIGHT
		DEPTH_AXIS_DIR=UP_DOWN
		ENERGY=7.00
		NOMINAL_DMAX=17.00
		SSD=1335.00
		SCD=494.00
		WEDGE_ANGLE=0.00
		FIELD_INPLANE=220.00
		FIELD_CROSSPLANE=572.00
		FIELD_TYPE=RECTANGULAR
		GANTRY=0.00
		GANTRY_UPRIGHT_POSITION=0
		GANTRY_ROTATION=CW
		COLL_ANGLE=0.00
		COLL_OFFSET_INPLANE=0.00
		COLL_OFFSET_CROSSPLANE=0.00
		SCAN_DEVICE=MP3
		SCAN_DEVICE_SETUP=BARA_LEFT_RIGHT
		ELECTROMETER=TANDEM
		RANGE_FIELD=LOW
		RANGE_REFERENCE=AUTO
		DETECTOR=DIAMOND_DETECTOR
		DETECTOR_RADIUS=0.00
		DETECTOR_NAME=PTW 60003 Diamond
		DETECTOR_SN=0000
		DETECTOR_CALIBRATION=10000000.00
		DETECTOR_IS_CALIBRATED=0
		DETECTOR_REFERENCE=THIMBLE_CHAMBER
		DETECTOR_REFERENCE_SUBCODE=SEMIFLEX
		DETECTOR_REFERENCE_RADIUS=2.75
		DETECTOR_REFERENCE_NAME=PTW 31010 Semiflex
		DETECTOR_REFERENCE_SN=0000
		DETECTOR_REFERENCE_IS_CALIBRATED=0
		DETECTOR_REFERENCE_CALIBRATION=300000000.00
		REF_FIELD_DEPTH=100.00
		REF_FIELD_DEFINED=ISOCENTER
		REF_FIELD_INPLANE=100.00
		REF_FIELD_CROSSPLANE=100.00
		REF_SCAN_POSITIONS=-130.00;-125.00;-120.00;-115.00;-110.00;-105.00;-100.00;-95.00;-90.00;-85.00;-80.00;-78.00;-76.00;-74.00;-72.00;-70.00;-68.00;-66.00;-64.00;-62.00;-60.00;-59.00;-58.00;-57.00;-56.00;-55.00;-54.00;-53.00;-52.00;-51.00;-50.00;-49.00;-48.00;-47.00;-46.00;-45.00;-44.00;-43.00;-42.00;-41.00;-40.00;-38.00;-36.00;-34.00;-32.00;-30.00;-28.00;-26.00;-24.00;-21.00;-18.00;-15.00;-12.00;-9.00;-6.00;-3.00;0.00;3.00;6.00;9.00;12.00;15.00;18.00;21.00;24.00;26.00;28.00;30.00;32.00;34.00;36.00;38.00;40.00;41.00;42.00;43.00;44.00;45.00;46.00;47.00;48.00;49.00;50.00;51.00;52.00;53.00;54.00;55.00;56.00;57.00;58.00;59.00;60.00;62.00;64.00;66.00;68.00;70.00;72.00;74.00;76.00;78.00;80.00;85.00;90.00;95.00;100.00;105.00;110.00;115.00;120.00;125.00;130.00;
		REF_OVERSCAN_FACTOR=1.00
		SCAN_CURVETYPE=CROSSPLANE_PROFILE
		SCAN_DEPTH=200.00
		SCAN_OFFAXIS_INPLANE=0.00
		SCAN_OFFAXIS_CROSSPLANE=0.00
		SCAN_ANGLE=0.00
		SCAN_DIAGONAL=NOT_DIAGONAL
		SCAN_DIRECTION=POSITIVE
		MEAS_MEDIUM=PMMA
		MEAS_PRESET=REFERENCE_DOSEMETER
		MEAS_TIME=1.000
		MEAS_UNIT=A.U.
		SCAN_SPEEDS=20.00; 5.00;40.00; 5.00;100.00; 5.00;270.00; 5.00;
		DELAY_TIMES=10.00; 0.500;150.00; 0.000;270.00; 0.000;
		INCLINATION_ANGLE=0.00
		PRESSURE=1013.25
		TEMPERATURE=20.00
		NORM_TEMPERATURE=20.00
		CORRECTION_FACTOR=1.0000
		EXPECTED_MAX_DOSE_RATE=1.00
		BEGIN_DATA
			-311.28		665.57E-06		2.1906E+00
			-310.21		700.60E-06		2.1924E+00
			-309.14		749.86E-06		2.1924E+00
			-308.07		842.91E-06		2.1924E+00
			-307.00		995.07E-06		2.1888E+00
			-305.93		1.2206E-03		2.1924E+00
			-304.86		1.5448E-03		2.1906E+00
			-303.79		1.8789E-03		2.1906E+00
			-302.72		2.1254E-03		2.1906E+00
			-301.65		2.2679E-03		2.1906E+00
			-300.58		2.3547E-03		2.1888E+00
			-299.51		2.3911E-03		2.1906E+00
			-298.44		2.4377E-03		2.1906E+00
			-297.37		2.4698E-03		2.1888E+00
			-296.30		2.4760E-03		2.1906E+00
			-295.23		2.5219E-03		2.1888E+00
			-293.09		2.5548E-03		2.1888E+00
			-290.95		2.5905E-03		2.1888E+00
			-288.82		2.6239E-03		2.1906E+00
			-286.68		2.6459E-03		2.1906E+00
			-284.54		2.6919E-03		2.1888E+00
			-282.40		2.7193E-03		2.1888E+00
			-280.26		2.7440E-03		2.1888E+00
			-278.12		2.7659E-03		2.1888E+00
			-274.91		2.8180E-03		2.1888E+00
			-271.70		2.8560E-03		2.1870E+00
			-268.49		2.8920E-03		2.1888E+00
			-265.28		2.9389E-03		2.1906E+00
			-262.07		2.9715E-03		2.1888E+00
			-258.86		3.0154E-03		2.1888E+00
			-255.66		3.0455E-03		2.1888E+00
			-252.45		3.0782E-03		2.1870E+00
			-249.24		3.1221E-03		2.1870E+00
			-246.03		3.1440E-03		2.1870E+00
			-242.82		3.1824E-03		2.1870E+00
			-239.61		3.2209E-03		2.1870E+00
			-236.40		3.2647E-03		2.1870E+00
			-233.19		3.2949E-03		2.1870E+00
			-229.98		3.3306E-03		2.1870E+00
			-226.77		3.3607E-03		2.1888E+00
			-223.56		3.3800E-03		2.1870E+00
			-220.36		3.4430E-03		2.1888E+00
			-217.15		3.4649E-03		2.1888E+00
			-213.94		3.5095E-03		2.1798E+00
			-210.73		3.5454E-03		2.1222E+00
			-207.52		3.5756E-03		2.1798E+00
			-204.31		3.5999E-03		2.1834E+00
			-201.10		3.6579E-03		2.1816E+00
			-197.89		3.6933E-03		2.1834E+00
			-194.68		3.7284E-03		2.1870E+00
			-191.47		3.7366E-03		2.1870E+00
			-188.26		3.7907E-03		2.1906E+00
			-185.06		3.8263E-03		2.1906E+00
			-181.85		3.8615E-03		2.1924E+00
			-178.64		3.8966E-03		2.1942E+00
			-175.43		3.9518E-03		2.1924E+00
			-172.22		3.9814E-03		2.1942E+00
			-169.01		4.0088E-03		2.1942E+00
			-165.80		4.0476E-03		2.1924E+00
			-162.59		4.0949E-03		2.1744E+00
			-159.38		4.1236E-03		2.1942E+00
			-156.17		4.1482E-03		2.1942E+00
			-152.97		4.2255E-03		2.1924E+00
			-149.76		4.2564E-03		2.1906E+00
			-146.55		4.2920E-03		2.1906E+00
			-143.34		4.3394E-03		2.1888E+00
			-140.13		4.3613E-03		2.1888E+00
			-136.92		4.4198E-03		2.1870E+00
			-133.71		4.4499E-03		2.1870E+00
			-130.50		4.4920E-03		2.1852E+00
			-127.29		4.5514E-03		2.1870E+00
			-124.08		4.5816E-03		2.1870E+00
			-120.87		4.6173E-03		2.1870E+00
			-117.67		4.6776E-03		2.1870E+00
			-114.46		4.6886E-03		2.1870E+00
			-111.25		4.7490E-03		2.1870E+00
			-108.04		4.7886E-03		2.1852E+00
			-104.83		4.8422E-03		2.1870E+00
			-101.62		4.8847E-03		2.1852E+00
			-98.41		4.9231E-03		2.1852E+00
			-95.20		4.9876E-03		2.1834E+00
			-91.99		5.0082E-03		2.1852E+00
			-88.78		5.0521E-03		2.1888E+00
			-85.57		5.0987E-03		2.1888E+00
			-82.37		5.1455E-03		2.1852E+00
			-79.16		5.1895E-03		2.1852E+00
			-75.95		5.2291E-03		2.1870E+00
			-72.74		5.2883E-03		2.1852E+00
			-69.53		5.3267E-03		2.1852E+00
			-66.32		5.3569E-03		2.1852E+00
			-63.11		5.4026E-03		2.1834E+00
			-59.90		5.4530E-03		2.1852E+00
			-56.69		5.4768E-03		2.1834E+00
			-53.48		5.5363E-03		2.1816E+00
			-50.28		5.5583E-03		2.1816E+00
			-47.07		5.6032E-03		2.1834E+00
			-43.86		5.6343E-03		2.1852E+00
			-40.65		5.6801E-03		2.1834E+00
			-37.44		5.6919E-03		2.1852E+00
			-34.23		5.7351E-03		2.1834E+00
			-31.02		5.7791E-03		2.1834E+00
			-27.81		5.7818E-03		2.1834E+00
			-24.60		5.8065E-03		2.1834E+00
			-21.39		5.8203E-03		2.1834E+00
			-18.18		5.8484E-03		2.1852E+00
			-14.98		5.8615E-03		2.1834E+00
			-11.77		5.8450E-03		2.1834E+00
			-8.56		5.8746E-03		2.1816E+00
			-5.35		5.8807E-03		2.1834E+00
			-2.14		5.8862E-03		2.1834E+00
			0.00		5.8911E-03		2.1816E+00
			2.14		5.8911E-03		2.1816E+00
			5.35		5.8869E-03		2.1852E+00
			8.56		5.8835E-03		2.1834E+00
			11.77		5.8608E-03		2.1816E+00
			14.98		5.8553E-03		2.1816E+00
			18.18		5.8313E-03		2.1834E+00
			21.39		5.7983E-03		2.1834E+00
			24.60		5.7811E-03		2.1816E+00
			27.81		5.7728E-03		2.1816E+00
			31.02		5.7288E-03		2.1816E+00
			34.23		5.7123E-03		2.1816E+00
			37.44		5.6609E-03		2.1834E+00
			40.65		5.6353E-03		2.1816E+00
			43.86		5.6133E-03		2.1816E+00
			47.07		5.5501E-03		2.1816E+00
			50.28		5.5391E-03		2.1816E+00
			53.48		5.4840E-03		2.1816E+00
			56.69		5.4776E-03		2.1798E+00
			59.90		5.4218E-03		2.1834E+00
			63.11		5.3685E-03		2.1816E+00
			66.32		5.3383E-03		2.1816E+00
			69.53		5.3034E-03		2.1654E+00
			72.74		5.2624E-03		2.1834E+00
			75.95		5.2200E-03		2.1816E+00
			79.16		5.1815E-03		2.1816E+00
			82.37		5.1153E-03		2.1852E+00
			85.57		5.0756E-03		2.1834E+00
			88.78		5.0330E-03		2.1816E+00
			91.99		4.9971E-03		2.0952E+00
			95.20		4.9696E-03		2.1744E+00
			98.41		4.9104E-03		2.1762E+00
		END_DATA
	END_SCAN  1
END_SCAN_DATA
