BEGIN_SCAN_DATA
	FORMAT=CC-Export V1.9                  
	FILE_CREATION_DATE=18-Aug-2015 19:47:52
	LAST_MODIFIED=18-Aug-2015 19:47:52
	BEGIN_SCAN  1
		TASK_NAME=tba PDD Profiles
		PROGRAM=tbaScan
		COMMENT=MicroDiamond P2
		MEAS_DATE=04-Aug-2015 15:40:10
		LINAC=J1 MRL
		MODALITY=X
		ISOCENTER=1435.00
		INPLANE_AXIS=Y
		CROSSPLANE_AXIS=X
		DEPTH_AXIS=Z
		INPLANE_AXIS_DIR=TARGET_GUN
		CROSSPLANE_AXIS_DIR=LEFT_RIGHT
		DEPTH_AXIS_DIR=UP_DOWN
		ENERGY=7.00
		NOMINAL_DMAX=17.00
		SSD=1335.00
		SCD=494.00
		WEDGE_ANGLE=0.00
		FIELD_INPLANE=220.00
		FIELD_CROSSPLANE=572.00
		FIELD_TYPE=RECTANGULAR
		GANTRY=0.00
		GANTRY_UPRIGHT_POSITION=0
		GANTRY_ROTATION=CW
		COLL_ANGLE=0.00
		COLL_OFFSET_INPLANE=0.00
		COLL_OFFSET_CROSSPLANE=0.00
		SCAN_DEVICE=MP3
		SCAN_DEVICE_SETUP=BARA_LEFT_RIGHT
		ELECTROMETER=TANDEM
		RANGE_FIELD=LOW
		RANGE_REFERENCE=AUTO
		DETECTOR=DIAMOND_DETECTOR
		DETECTOR_RADIUS=0.00
		DETECTOR_NAME=PTW 60003 Diamond
		DETECTOR_SN=0000
		DETECTOR_CALIBRATION=10000000.00
		DETECTOR_IS_CALIBRATED=0
		DETECTOR_REFERENCE=THIMBLE_CHAMBER
		DETECTOR_REFERENCE_SUBCODE=SEMIFLEX
		DETECTOR_REFERENCE_RADIUS=2.75
		DETECTOR_REFERENCE_NAME=PTW 31010 Semiflex
		DETECTOR_REFERENCE_SN=0000
		DETECTOR_REFERENCE_IS_CALIBRATED=0
		DETECTOR_REFERENCE_CALIBRATION=300000000.00
		REF_FIELD_DEPTH=100.00
		REF_FIELD_DEFINED=ISOCENTER
		REF_FIELD_INPLANE=100.00
		REF_FIELD_CROSSPLANE=100.00
		REF_SCAN_POSITIONS=-130.00;-125.00;-120.00;-115.00;-110.00;-105.00;-100.00;-95.00;-90.00;-85.00;-80.00;-78.00;-76.00;-74.00;-72.00;-70.00;-68.00;-66.00;-64.00;-62.00;-60.00;-59.00;-58.00;-57.00;-56.00;-55.00;-54.00;-53.00;-52.00;-51.00;-50.00;-49.00;-48.00;-47.00;-46.00;-45.00;-44.00;-43.00;-42.00;-41.00;-40.00;-38.00;-36.00;-34.00;-32.00;-30.00;-28.00;-26.00;-24.00;-21.00;-18.00;-15.00;-12.00;-9.00;-6.00;-3.00;0.00;3.00;6.00;9.00;12.00;15.00;18.00;21.00;24.00;26.00;28.00;30.00;32.00;34.00;36.00;38.00;40.00;41.00;42.00;43.00;44.00;45.00;46.00;47.00;48.00;49.00;50.00;51.00;52.00;53.00;54.00;55.00;56.00;57.00;58.00;59.00;60.00;62.00;64.00;66.00;68.00;70.00;72.00;74.00;76.00;78.00;80.00;85.00;90.00;95.00;100.00;105.00;110.00;115.00;120.00;125.00;130.00;
		REF_OVERSCAN_FACTOR=1.00
		SCAN_CURVETYPE=CROSSPLANE_PROFILE
		SCAN_DEPTH=200.00
		SCAN_OFFAXIS_INPLANE=0.00
		SCAN_OFFAXIS_CROSSPLANE=3.60
		SCAN_ANGLE=0.00
		SCAN_DIAGONAL=NOT_DIAGONAL
		SCAN_DIRECTION=POSITIVE
		MEAS_MEDIUM=PMMA
		MEAS_PRESET=REFERENCE_DOSEMETER
		MEAS_TIME=1.000
		MEAS_UNIT=A.U.
		SCAN_SPEEDS=20.00; 5.00;40.00; 5.00;100.00; 5.00;270.00; 5.00;
		DELAY_TIMES=10.00; 0.500;150.00; 0.000;270.00; 0.000;
		INCLINATION_ANGLE=0.00
		PRESSURE=1013.25
		TEMPERATURE=20.00
		NORM_TEMPERATURE=20.00
		CORRECTION_FACTOR=1.0000
		EXPECTED_MAX_DOSE_RATE=1.00
		BEGIN_DATA
			-88.78		5.4031E-03		2.0466E+00
			-85.57		5.4559E-03		2.0466E+00
			-82.37		5.5057E-03		2.0466E+00
			-79.16		5.5409E-03		2.0466E+00
			-75.95		5.5898E-03		2.0448E+00
			-72.74		5.6171E-03		2.0466E+00
			-69.53		5.6505E-03		2.0430E+00
			-66.32		5.7197E-03		2.0466E+00
			-63.11		5.7520E-03		2.0466E+00
			-59.90		5.7938E-03		2.0484E+00
			-56.69		5.8289E-03		2.0484E+00
			-53.48		5.8751E-03		2.0466E+00
			-50.28		5.9103E-03		2.0466E+00
			-47.07		5.9631E-03		2.0466E+00
			-43.86		5.9930E-03		2.0484E+00
			-40.65		6.0281E-03		2.0484E+00
			-37.44		6.0750E-03		2.0484E+00
			-34.23		6.0989E-03		2.0502E+00
			-31.02		6.1194E-03		2.0502E+00
			-27.81		6.1487E-03		2.0502E+00
			-24.60		6.1980E-03		2.0484E+00
			-21.39		6.1951E-03		2.0484E+00
			-18.18		6.2043E-03		2.0502E+00
			-14.98		6.2365E-03		2.0502E+00
			-11.77		6.2105E-03		2.0520E+00
			-8.56		6.2511E-03		2.0502E+00
			-5.35		6.2281E-03		2.0520E+00
			-2.14		6.2339E-03		2.0520E+00
			0.00		6.2460E-03		2.0538E+00
			2.14		6.2547E-03		2.0538E+00
			5.35		6.2402E-03		2.0682E+00
			8.56		6.2133E-03		2.0646E+00
			11.77		6.2373E-03		2.0682E+00
			14.98		6.1901E-03		2.0646E+00
			18.18		6.1809E-03		2.0628E+00
			21.39		6.1572E-03		2.0610E+00
			24.60		6.1135E-03		2.0610E+00
			27.81		6.0902E-03		2.0610E+00
			31.02		6.0640E-03		2.0610E+00
			34.23		6.0052E-03		2.0592E+00
			37.44		5.9761E-03		2.0592E+00
			40.65		5.9499E-03		2.0592E+00
			43.86		5.9522E-03		2.0574E+00
			47.07		5.8858E-03		2.0592E+00
			50.28		5.8428E-03		2.0610E+00
			53.48		5.8034E-03		2.0574E+00
			56.69		5.7451E-03		2.0574E+00
			59.90		5.6897E-03		2.0574E+00
			63.11		5.6635E-03		2.0574E+00
			66.32		5.6343E-03		2.0574E+00
			69.53		5.5633E-03		2.0556E+00
			72.74		5.5118E-03		2.0574E+00
			75.95		5.4710E-03		2.0574E+00
			79.16		5.4349E-03		2.0556E+00
			82.37		5.3940E-03		2.0556E+00
			85.57		5.3287E-03		2.0538E+00
			88.78		5.2965E-03		2.0538E+00
			91.99		5.2602E-03		2.0520E+00
			95.20		5.1914E-03		2.0538E+00
			98.41		5.1725E-03		2.0520E+00
			101.62		5.1082E-03		2.0520E+00
			104.83		5.0439E-03		2.0520E+00
			108.04		5.0029E-03		2.0520E+00
			111.25		4.9649E-03		2.0520E+00
			114.46		4.9240E-03		2.0520E+00
			117.67		4.8756E-03		2.0502E+00
			120.87		4.8495E-03		2.0538E+00
			124.08		4.7895E-03		2.0520E+00
			127.29		4.7381E-03		2.0502E+00
			130.50		4.7000E-03		2.0502E+00
			133.71		4.6444E-03		2.0502E+00
			136.92		4.6152E-03		2.0502E+00
			140.13		4.5596E-03		2.0502E+00
			143.34		4.5332E-03		2.0502E+00
			146.55		4.4708E-03		2.0520E+00
			149.76		4.4386E-03		2.0520E+00
			152.97		4.4083E-03		2.0484E+00
			156.17		4.3606E-03		2.0502E+00
			159.38		4.2941E-03		2.0484E+00
			162.59		4.2677E-03		2.0484E+00
			165.80		4.2376E-03		2.0502E+00
			169.01		4.1937E-03		2.0502E+00
			172.22		4.1769E-03		2.0484E+00
			175.43		4.1294E-03		2.0502E+00
			178.64		4.0737E-03		2.0502E+00
			181.85		4.0620E-03		2.0502E+00
			185.06		4.0152E-03		2.0502E+00
			188.26		3.9596E-03		2.0502E+00
			191.47		3.9186E-03		2.0502E+00
			194.68		3.9040E-03		2.0502E+00
			197.89		3.8718E-03		2.0502E+00
			201.10		3.8221E-03		2.0502E+00
			204.31		3.7899E-03		2.0502E+00
			207.52		3.7661E-03		2.0520E+00
			210.73		3.7251E-03		2.0520E+00
			213.94		3.6722E-03		2.0538E+00
			217.15		3.6311E-03		2.0556E+00
			220.36		3.5960E-03		2.0556E+00
			223.56		3.5608E-03		2.0574E+00
			226.77		3.5169E-03		2.0592E+00
			229.98		3.4848E-03		2.0592E+00
			233.19		3.4353E-03		2.0592E+00
			236.40		3.4033E-03		2.0592E+00
			239.61		3.3654E-03		2.0574E+00
			242.82		3.3508E-03		2.0592E+00
			246.03		3.2779E-03		2.0574E+00
			249.24		3.2750E-03		2.0574E+00
			252.45		3.2253E-03		2.0556E+00
			255.66		3.1931E-03		2.0538E+00
			258.86		3.1407E-03		2.0556E+00
			262.07		3.1080E-03		2.0502E+00
			265.28		3.0646E-03		2.0538E+00
			268.49		3.0266E-03		2.0538E+00
			271.70		2.9685E-03		2.0556E+00
			274.91		2.9243E-03		2.0538E+00
			278.12		2.8922E-03		2.0538E+00
			280.26		2.8571E-03		2.0538E+00
			282.40		2.8333E-03		2.0520E+00
			284.54		2.7992E-03		2.0556E+00
			286.68		2.7666E-03		2.0538E+00
			288.82		2.7315E-03		2.0538E+00
			290.95		2.7140E-03		2.0538E+00
			293.09		2.6702E-03		2.0538E+00
			295.23		2.6205E-03		2.0538E+00
			296.30		2.6111E-03		2.0520E+00
			297.37		2.5760E-03		2.0520E+00
			298.44		2.5387E-03		2.0538E+00
			299.51		2.4949E-03		2.0538E+00
			300.58		2.4678E-03		2.0520E+00
			301.65		2.3684E-03		2.0520E+00
			302.72		2.2320E-03		2.0538E+00
			303.79		1.9615E-03		2.0556E+00
			304.86		1.6228E-03		2.0520E+00
			305.93		1.2299E-03		2.0538E+00
			307.00		1.0020E-03		2.0538E+00
			308.07		841.37E-06		2.0538E+00
			309.14		757.31E-06		2.0520E+00
			310.21		713.45E-06		2.0520E+00
			311.28		666.08E-06		2.0538E+00
			312.35		645.63E-06		2.0538E+00
			313.42		628.10E-06		2.0538E+00
			314.49		593.57E-06		2.0520E+00
			315.56		581.36E-06		2.0538E+00
			316.63		575.52E-06		2.0538E+00
			318.77		540.46E-06		2.0538E+00
			320.91		520.01E-06		2.0538E+00
		END_DATA
	END_SCAN  1
END_SCAN_DATA
