BEGIN_SCAN_DATA
	FORMAT=CC-Export V1.9                  
	FILE_CREATION_DATE=24-Aug-2015 18:03:53
	LAST_MODIFIED=24-Aug-2015 18:03:53
	BEGIN_SCAN  1
		TASK_NAME=tba PDD Profiles
		PROGRAM=tbaScan
		COMMENT=MicroDiamond P1
		MEAS_DATE=03-Aug-2015 17:10:01
		LINAC=J1 MRL
		MODALITY=X
		ISOCENTER=1435.00
		INPLANE_AXIS=Y
		CROSSPLANE_AXIS=X
		DEPTH_AXIS=Z
		INPLANE_AXIS_DIR=TARGET_GUN
		CROSSPLANE_AXIS_DIR=LEFT_RIGHT
		DEPTH_AXIS_DIR=UP_DOWN
		ENERGY=7.00
		NOMINAL_DMAX=17.00
		SSD=1335.00
		SCD=494.00
		WEDGE_ANGLE=0.00
		FIELD_INPLANE=220.00
		FIELD_CROSSPLANE=572.00
		FIELD_TYPE=RECTANGULAR
		GANTRY=0.00
		GANTRY_UPRIGHT_POSITION=0
		GANTRY_ROTATION=CW
		COLL_ANGLE=0.00
		COLL_OFFSET_INPLANE=0.00
		COLL_OFFSET_CROSSPLANE=0.00
		SCAN_DEVICE=MP3
		SCAN_DEVICE_SETUP=BARA_LEFT_RIGHT
		ELECTROMETER=TANDEM
		RANGE_FIELD=LOW
		RANGE_REFERENCE=AUTO
		DETECTOR=DIAMOND_DETECTOR
		DETECTOR_RADIUS=0.00
		DETECTOR_NAME=PTW 60003 Diamond
		DETECTOR_SN=0000
		DETECTOR_CALIBRATION=10000000.00
		DETECTOR_IS_CALIBRATED=0
		DETECTOR_REFERENCE=THIMBLE_CHAMBER
		DETECTOR_REFERENCE_SUBCODE=SEMIFLEX
		DETECTOR_REFERENCE_RADIUS=2.75
		DETECTOR_REFERENCE_NAME=PTW 31010 Semiflex
		DETECTOR_REFERENCE_SN=0000
		DETECTOR_REFERENCE_IS_CALIBRATED=0
		DETECTOR_REFERENCE_CALIBRATION=300000000.00
		REF_FIELD_DEPTH=100.00
		REF_FIELD_DEFINED=ISOCENTER
		REF_FIELD_INPLANE=100.00
		REF_FIELD_CROSSPLANE=100.00
		REF_SCAN_POSITIONS=-130.00;-125.00;-120.00;-115.00;-110.00;-105.00;-100.00;-95.00;-90.00;-85.00;-80.00;-78.00;-76.00;-74.00;-72.00;-70.00;-68.00;-66.00;-64.00;-62.00;-60.00;-59.00;-58.00;-57.00;-56.00;-55.00;-54.00;-53.00;-52.00;-51.00;-50.00;-49.00;-48.00;-47.00;-46.00;-45.00;-44.00;-43.00;-42.00;-41.00;-40.00;-38.00;-36.00;-34.00;-32.00;-30.00;-28.00;-26.00;-24.00;-22.00;-20.00;-16.00;-12.00;-8.00;-4.00;0.00;4.00;8.00;12.00;16.00;20.00;22.00;24.00;26.00;28.00;30.00;32.00;34.00;36.00;38.00;40.00;41.00;42.00;43.00;44.00;45.00;46.00;47.00;48.00;49.00;50.00;51.00;52.00;53.00;54.00;55.00;56.00;57.00;58.00;59.00;60.00;62.00;64.00;66.00;68.00;70.00;72.00;74.00;76.00;78.00;80.00;85.00;90.00;95.00;100.00;105.00;110.00;115.00;120.00;125.00;130.00;
		REF_OVERSCAN_FACTOR=1.00
		SCAN_CURVETYPE=CROSSPLANE_PROFILE
		SCAN_DEPTH=17.00
		SCAN_OFFAXIS_INPLANE=0.00
		SCAN_OFFAXIS_CROSSPLANE=0.00
		SCAN_ANGLE=0.00
		SCAN_DIAGONAL=FIRST_DIAGONAL
		SCAN_DIRECTION=POSITIVE
		MEAS_MEDIUM=PMMA
		MEAS_PRESET=REFERENCE_DOSEMETER
		MEAS_TIME=1.000
		MEAS_UNIT=A.U.
		SCAN_SPEEDS=20.00; 5.00;40.00; 5.00;100.00; 5.00;270.00; 5.00;
		DELAY_TIMES=10.00; 0.500;150.00; 0.000;270.00; 0.000;
		INCLINATION_ANGLE=0.00
		PRESSURE=1013.25
		TEMPERATURE=20.00
		NORM_TEMPERATURE=20.00
		CORRECTION_FACTOR=1.0000
		EXPECTED_MAX_DOSE_RATE=1.00
		BEGIN_DATA
			-329.08		189.46E-06		2.1852E+00
			-324.03		205.76E-06		2.1870E+00
			-318.98		219.48E-06		2.1870E+00
			-316.97		227.90E-06		2.1852E+00
			-314.95		233.20E-06		2.1870E+00
			-312.93		244.17E-06		2.1870E+00
			-310.91		254.93E-06		2.1888E+00
			-308.89		263.37E-06		2.1870E+00
			-306.87		277.09E-06		2.1870E+00
			-304.85		293.31E-06		2.1888E+00
			-302.83		298.79E-06		2.1888E+00
			-300.81		317.98E-06		2.1888E+00
			-298.80		334.16E-06		2.1906E+00
			-297.79		345.11E-06		2.1906E+00
			-296.78		353.62E-06		2.1888E+00
			-295.77		377.67E-06		2.1924E+00
			-294.76		394.41E-06		2.1906E+00
			-293.75		416.32E-06		2.1906E+00
			-292.74		452.30E-06		2.1888E+00
			-291.73		525.88E-06		2.1906E+00
			-290.72		648.60E-06		2.1924E+00
			-289.71		899.12E-06		2.1888E+00
			-288.70		1.3667E-03		2.1906E+00
			-287.69		2.0981E-03		2.1906E+00
			-286.68		2.9666E-03		2.1924E+00
			-285.67		3.6949E-03		2.1906E+00
			-284.66		4.1996E-03		2.1888E+00
			-283.65		4.5861E-03		2.1888E+00
			-282.64		4.8276E-03		2.1924E+00
			-281.63		4.9959E-03		2.1906E+00
			-280.63		5.1438E-03		2.1906E+00
			-279.62		5.2835E-03		2.1906E+00
			-278.61		5.3602E-03		2.1906E+00
			-276.59		5.5063E-03		2.1924E+00
			-274.57		5.5985E-03		2.1906E+00
			-272.55		5.6823E-03		2.1942E+00
			-270.53		5.7526E-03		2.1924E+00
			-268.51		5.8292E-03		2.1924E+00
			-266.49		5.8703E-03		2.1924E+00
			-264.47		5.9250E-03		2.1924E+00
			-262.46		5.9639E-03		2.1942E+00
			-260.44		6.0367E-03		2.1906E+00
			-258.42		6.0701E-03		2.1924E+00
			-254.38		6.1631E-03		2.1924E+00
			-250.34		6.2531E-03		2.1906E+00
			-246.30		6.3270E-03		2.1906E+00
			-242.27		6.4119E-03		2.1906E+00
			-238.23		6.4914E-03		2.1906E+00
			-234.19		6.5817E-03		2.1888E+00
			-230.15		6.6941E-03		2.1906E+00
			-226.12		6.7571E-03		2.1906E+00
			-222.08		6.8582E-03		2.1924E+00
			-218.04		6.9515E-03		2.1906E+00
			-214.00		7.0313E-03		2.1888E+00
			-209.96		7.1323E-03		2.1906E+00
			-205.93		7.2094E-03		2.1888E+00
			-201.89		7.3273E-03		2.1888E+00
			-197.85		7.3904E-03		2.1888E+00
			-193.81		7.5000E-03		2.1888E+00
			-189.78		7.5802E-03		2.1870E+00
			-185.74		7.6891E-03		2.1888E+00
			-181.70		7.7549E-03		2.1888E+00
			-177.66		7.8957E-03		2.1870E+00
			-173.62		7.9835E-03		2.1870E+00
			-169.59		8.1097E-03		2.1870E+00
			-165.55		8.2085E-03		2.1870E+00
			-161.51		8.2881E-03		2.1870E+00
			-157.47		8.4198E-03		2.1870E+00
			-153.44		8.5283E-03		2.1852E+00
			-149.40		8.6452E-03		2.1834E+00
			-145.36		8.7699E-03		2.1852E+00
			-141.32		8.8816E-03		2.1834E+00
			-137.28		8.9896E-03		2.1852E+00
			-133.25		9.1371E-03		2.1834E+00
			-129.21		9.2312E-03		2.1852E+00
			-125.17		9.3075E-03		2.1834E+00
			-121.13		9.4751E-03		2.1834E+00
			-117.10		9.6180E-03		2.1834E+00
			-113.06		9.7309E-03		2.1852E+00
			-109.02		9.8763E-03		2.1834E+00
			-104.98		9.9780E-03		2.1834E+00
			-100.94		10.102E-03		2.1834E+00
			-96.91		10.253E-03		2.1834E+00
			-92.87		10.396E-03		2.1834E+00
			-88.83		10.547E-03		2.1834E+00
			-84.79		10.687E-03		2.1834E+00
			-80.76		10.786E-03		2.1834E+00
			-76.72		10.962E-03		2.1834E+00
			-72.68		11.091E-03		2.1834E+00
			-68.64		11.267E-03		2.1834E+00
			-64.60		11.401E-03		2.1834E+00
			-60.57		11.492E-03		2.1834E+00
			-56.53		11.638E-03		2.1834E+00
			-52.49		11.778E-03		2.1834E+00
			-48.45		11.903E-03		2.1816E+00
			-44.42		12.049E-03		2.1816E+00
			-40.38		12.140E-03		2.1816E+00
			-36.34		12.296E-03		2.1816E+00
			-32.30		12.383E-03		2.1834E+00
			-28.26		12.473E-03		2.1834E+00
			-24.23		12.575E-03		2.1834E+00
			-20.19		12.656E-03		2.1798E+00
			-16.15		12.701E-03		2.1816E+00
			-12.11		12.761E-03		2.1816E+00
			-8.08		12.772E-03		2.1816E+00
			-4.04		12.764E-03		2.1834E+00
			0.00		12.797E-03		2.1816E+00
			4.04		12.778E-03		2.1816E+00
			8.08		12.740E-03		2.1834E+00
			12.11		12.687E-03		2.1816E+00
			16.15		12.632E-03		2.1816E+00
			20.19		12.561E-03		2.1816E+00
			24.23		12.459E-03		2.1816E+00
			28.26		12.339E-03		2.1834E+00
			32.30		12.228E-03		2.1816E+00
			36.34		12.121E-03		2.1834E+00
			40.38		11.998E-03		2.1834E+00
			44.42		11.892E-03		2.1816E+00
			48.45		11.746E-03		2.1816E+00
			52.49		11.620E-03		2.1816E+00
			56.53		11.526E-03		2.1816E+00
			60.57		11.366E-03		2.1834E+00
			64.60		11.260E-03		2.1816E+00
			68.64		11.098E-03		2.1798E+00
			72.68		10.924E-03		2.1816E+00
			76.72		10.814E-03		2.1816E+00
			80.76		10.677E-03		2.1798E+00
			84.79		10.584E-03		2.1798E+00
			88.83		10.435E-03		2.1798E+00
			92.87		10.314E-03		2.1798E+00
			96.91		10.165E-03		2.1798E+00
			100.94		10.008E-03		2.1798E+00
			104.98		9.9119E-03		2.1798E+00
		END_DATA
	END_SCAN  1
END_SCAN_DATA
