BEGIN_SCAN_DATA
	FORMAT=CC-Export V1.9                  
	FILE_CREATION_DATE=19-Aug-2015 08:48:19
	LAST_MODIFIED=19-Aug-2015 08:48:19
	BEGIN_SCAN  1
		TASK_NAME=tba PDD Profiles
		PROGRAM=tbaScan
		COMMENT=MicroDiamond P2
		MEAS_DATE=04-Aug-2015 16:22:49
		LINAC=J1 MRL
		MODALITY=X
		ISOCENTER=1435.00
		INPLANE_AXIS=Y
		CROSSPLANE_AXIS=X
		DEPTH_AXIS=Z
		INPLANE_AXIS_DIR=TARGET_GUN
		CROSSPLANE_AXIS_DIR=LEFT_RIGHT
		DEPTH_AXIS_DIR=UP_DOWN
		ENERGY=7.00
		NOMINAL_DMAX=17.00
		SSD=1335.00
		SCD=494.00
		WEDGE_ANGLE=0.00
		FIELD_INPLANE=220.00
		FIELD_CROSSPLANE=572.00
		FIELD_TYPE=RECTANGULAR
		GANTRY=0.00
		GANTRY_UPRIGHT_POSITION=0
		GANTRY_ROTATION=CW
		COLL_ANGLE=0.00
		COLL_OFFSET_INPLANE=0.00
		COLL_OFFSET_CROSSPLANE=0.00
		SCAN_DEVICE=MP3
		SCAN_DEVICE_SETUP=BARA_LEFT_RIGHT
		ELECTROMETER=TANDEM
		RANGE_FIELD=LOW
		RANGE_REFERENCE=AUTO
		DETECTOR=DIAMOND_DETECTOR
		DETECTOR_RADIUS=0.00
		DETECTOR_NAME=PTW 60003 Diamond
		DETECTOR_SN=0000
		DETECTOR_CALIBRATION=10000000.00
		DETECTOR_IS_CALIBRATED=0
		DETECTOR_REFERENCE=THIMBLE_CHAMBER
		DETECTOR_REFERENCE_SUBCODE=SEMIFLEX
		DETECTOR_REFERENCE_RADIUS=2.75
		DETECTOR_REFERENCE_NAME=PTW 31010 Semiflex
		DETECTOR_REFERENCE_SN=0000
		DETECTOR_REFERENCE_IS_CALIBRATED=0
		DETECTOR_REFERENCE_CALIBRATION=300000000.00
		REF_FIELD_DEPTH=100.00
		REF_FIELD_DEFINED=ISOCENTER
		REF_FIELD_INPLANE=100.00
		REF_FIELD_CROSSPLANE=100.00
		REF_SCAN_POSITIONS=-130.00;-125.00;-120.00;-115.00;-110.00;-105.00;-100.00;-95.00;-90.00;-85.00;-80.00;-78.00;-76.00;-74.00;-72.00;-70.00;-68.00;-66.00;-64.00;-62.00;-60.00;-59.00;-58.00;-57.00;-56.00;-55.00;-54.00;-53.00;-52.00;-51.00;-50.00;-49.00;-48.00;-47.00;-46.00;-45.00;-44.00;-43.00;-42.00;-41.00;-40.00;-38.00;-36.00;-34.00;-32.00;-30.00;-28.00;-26.00;-24.00;-22.00;-20.00;-16.00;-12.00;-8.00;-4.00;0.00;4.00;8.00;12.00;16.00;20.00;22.00;24.00;26.00;28.00;30.00;32.00;34.00;36.00;38.00;40.00;41.00;42.00;43.00;44.00;45.00;46.00;47.00;48.00;49.00;50.00;51.00;52.00;53.00;54.00;55.00;56.00;57.00;58.00;59.00;60.00;62.00;64.00;66.00;68.00;70.00;72.00;74.00;76.00;78.00;80.00;85.00;90.00;95.00;100.00;105.00;110.00;115.00;120.00;125.00;130.00;
		REF_OVERSCAN_FACTOR=1.00
		SCAN_CURVETYPE=CROSSPLANE_PROFILE
		SCAN_DEPTH=17.00
		SCAN_OFFAXIS_INPLANE=0.00
		SCAN_OFFAXIS_CROSSPLANE=0.00
		SCAN_ANGLE=0.00
		SCAN_DIAGONAL=FIRST_DIAGONAL
		SCAN_DIRECTION=POSITIVE
		MEAS_MEDIUM=PMMA
		MEAS_PRESET=REFERENCE_DOSEMETER
		MEAS_TIME=1.000
		MEAS_UNIT=A.U.
		SCAN_SPEEDS=20.00; 5.00;40.00; 5.00;100.00; 5.00;270.00; 5.00;
		DELAY_TIMES=10.00; 0.500;150.00; 0.000;270.00; 0.000;
		INCLINATION_ANGLE=0.00
		PRESSURE=1013.25
		TEMPERATURE=20.00
		NORM_TEMPERATURE=20.00
		CORRECTION_FACTOR=1.0000
		EXPECTED_MAX_DOSE_RATE=1.00
		BEGIN_DATA
			-92.87		11.074E-03		2.0556E+00
			-88.83		11.229E-03		2.0556E+00
			-84.79		11.311E-03		2.0556E+00
			-80.76		11.492E-03		2.0556E+00
			-76.72		11.639E-03		2.0538E+00
			-72.68		11.805E-03		2.0538E+00
			-68.64		11.940E-03		2.0538E+00
			-64.60		12.094E-03		2.0520E+00
			-60.57		12.238E-03		2.0538E+00
			-56.53		12.363E-03		2.0538E+00
			-52.49		12.536E-03		2.0538E+00
			-48.45		12.670E-03		2.0520E+00
			-44.42		12.775E-03		2.0520E+00
			-40.38		12.866E-03		2.0538E+00
			-36.34		13.044E-03		2.0520E+00
			-32.30		13.120E-03		2.0520E+00
			-28.26		13.237E-03		2.0520E+00
			-24.23		13.351E-03		2.0502E+00
			-20.19		13.406E-03		2.0520E+00
			-16.15		13.503E-03		2.0538E+00
			-12.11		13.541E-03		2.0520E+00
			-8.08		13.517E-03		2.0538E+00
			-4.04		13.570E-03		2.0538E+00
			0.00		13.591E-03		2.0520E+00
			4.04		13.541E-03		2.0520E+00
			8.08		13.515E-03		2.0502E+00
			12.11		13.430E-03		2.0520E+00
			16.15		13.357E-03		2.0520E+00
			20.19		13.310E-03		2.0520E+00
			24.23		13.187E-03		2.0538E+00
			28.26		13.082E-03		2.0520E+00
			32.30		12.968E-03		2.0520E+00
			36.34		12.888E-03		2.0502E+00
			40.38		12.722E-03		2.0520E+00
			44.42		12.610E-03		2.0502E+00
			48.45		12.452E-03		2.0502E+00
			52.49		12.341E-03		2.0502E+00
			56.53		12.174E-03		2.0502E+00
			60.57		12.028E-03		2.0502E+00
			64.60		11.889E-03		2.0520E+00
			68.64		11.759E-03		2.0502E+00
			72.68		11.573E-03		2.0520E+00
			76.72		11.466E-03		2.0502E+00
			80.76		11.320E-03		2.0502E+00
			84.79		11.175E-03		2.0520E+00
			88.83		11.024E-03		2.0502E+00
			92.87		10.907E-03		2.0502E+00
			96.91		10.743E-03		2.0502E+00
			100.94		10.609E-03		2.0502E+00
			104.98		10.457E-03		2.0502E+00
			109.02		10.351E-03		2.0484E+00
			113.06		10.176E-03		2.0484E+00
			117.10		10.056E-03		2.0502E+00
			121.13		9.9473E-03		2.0484E+00
			125.17		9.8052E-03		1.9710E+00
			129.21		9.6722E-03		2.0502E+00
			133.25		9.5899E-03		2.0484E+00
			137.28		9.4586E-03		2.0502E+00
			141.32		9.3146E-03		2.0484E+00
			145.36		9.1828E-03		2.0484E+00
			149.40		9.1008E-03		2.0484E+00
			153.44		8.9572E-03		2.0484E+00
			157.47		8.8606E-03		2.0484E+00
			161.51		8.7522E-03		2.0484E+00
			165.55		8.6338E-03		2.0466E+00
			169.59		8.5091E-03		2.0484E+00
			173.62		8.4329E-03		2.0484E+00
			177.66		8.3304E-03		2.0484E+00
			181.70		8.2220E-03		2.0484E+00
			185.74		8.1120E-03		2.0466E+00
			189.78		8.0094E-03		2.0466E+00
			193.81		7.9332E-03		2.0466E+00
			197.85		7.7924E-03		2.0466E+00
			201.89		7.7338E-03		2.0466E+00
			205.93		7.6136E-03		2.0466E+00
			209.96		7.5161E-03		2.0484E+00
			214.00		7.4465E-03		2.0466E+00
			218.04		7.3527E-03		2.0466E+00
			222.08		7.2525E-03		2.0484E+00
			226.12		7.1525E-03		2.0502E+00
			230.15		7.0676E-03		2.0502E+00
			234.19		6.9734E-03		2.0538E+00
			238.23		6.9037E-03		2.0502E+00
			242.27		6.8011E-03		2.0538E+00
			246.30		6.7046E-03		2.0538E+00
			250.34		6.6053E-03		2.0538E+00
			254.38		6.5236E-03		2.0556E+00
			258.42		6.4129E-03		2.0574E+00
			260.44		6.4098E-03		2.0556E+00
			262.46		6.3255E-03		2.0574E+00
			264.47		6.2555E-03		2.0574E+00
			266.49		6.2234E-03		2.0574E+00
			268.51		6.1675E-03		2.0556E+00
			270.53		6.1033E-03		2.0556E+00
			272.55		6.0245E-03		2.0556E+00
			274.57		5.9399E-03		2.0556E+00
			276.59		5.8435E-03		2.0556E+00
			278.61		5.7201E-03		2.0538E+00
			279.62		5.5877E-03		2.0520E+00
			280.63		5.5107E-03		2.0502E+00
			281.63		5.3684E-03		2.0520E+00
			282.64		5.2105E-03		2.0520E+00
			283.65		4.9663E-03		2.0502E+00
			284.66		4.6737E-03		2.0502E+00
			285.67		4.2230E-03		2.0502E+00
			286.68		3.5413E-03		2.0484E+00
			287.69		2.5923E-03		2.0484E+00
			288.70		1.6462E-03		2.0520E+00
			289.71		1.0429E-03		2.0538E+00
			290.72		739.12E-06		2.0538E+00
			291.73		584.28E-06		2.0538E+00
			292.74		511.25E-06		2.0538E+00
			293.75		464.50E-06		2.0538E+00
			294.76		434.91E-06		2.0556E+00
			295.77		420.68E-06		2.0538E+00
			296.78		402.80E-06		2.0556E+00
			297.79		388.55E-06		2.0538E+00
			298.80		373.61E-06		2.0556E+00
			300.81		361.94E-06		2.0556E+00
			302.83		341.81E-06		2.0538E+00
			304.85		333.04E-06		2.0538E+00
			306.87		315.51E-06		2.0538E+00
			308.89		307.02E-06		2.0520E+00
			310.91		295.06E-06		2.0538E+00
			312.93		286.55E-06		2.0520E+00
			314.95		271.93E-06		2.0520E+00
			316.97		262.93E-06		2.0538E+00
			318.98		257.08E-06		2.0538E+00
			324.03		233.71E-06		2.0538E+00
			329.08		218.91E-06		2.0556E+00
			334.13		201.58E-06		2.0538E+00
			339.17		189.73E-06		2.0556E+00
		END_DATA
	END_SCAN  1
END_SCAN_DATA
