BEGIN_SCAN_DATA
	FORMAT=CC-Export V1.9                  
	FILE_CREATION_DATE=11-Aug-2015 16:03:11
	LAST_MODIFIED=11-Aug-2015 16:03:11
	BEGIN_SCAN  1
		TASK_NAME=tba PDD Profiles
		PROGRAM=tbaScan
		COMMENT=MicroDiamond P1
		MEAS_DATE=03-Aug-2015 15:51:52
		LINAC=J1 MRL
		MODALITY=X
		ISOCENTER=1435.00
		INPLANE_AXIS=Y
		CROSSPLANE_AXIS=X
		DEPTH_AXIS=Z
		INPLANE_AXIS_DIR=TARGET_GUN
		CROSSPLANE_AXIS_DIR=LEFT_RIGHT
		DEPTH_AXIS_DIR=UP_DOWN
		ENERGY=7.00
		NOMINAL_DMAX=17.00
		SSD=1335.00
		SCD=494.00
		WEDGE_ANGLE=0.00
		FIELD_INPLANE=220.00
		FIELD_CROSSPLANE=570.00
		FIELD_TYPE=RECTANGULAR
		GANTRY=0.00
		GANTRY_UPRIGHT_POSITION=0
		GANTRY_ROTATION=CW
		COLL_ANGLE=0.00
		COLL_OFFSET_INPLANE=0.00
		COLL_OFFSET_CROSSPLANE=0.00
		SCAN_DEVICE=MP3
		SCAN_DEVICE_SETUP=BARA_LEFT_RIGHT
		ELECTROMETER=TANDEM
		RANGE_FIELD=LOW
		RANGE_REFERENCE=AUTO
		DETECTOR=DIAMOND_DETECTOR
		DETECTOR_RADIUS=0.00
		DETECTOR_NAME=PTW 60003 Diamond
		DETECTOR_SN=0000
		DETECTOR_CALIBRATION=10000000.00
		DETECTOR_IS_CALIBRATED=0
		DETECTOR_REFERENCE=THIMBLE_CHAMBER
		DETECTOR_REFERENCE_SUBCODE=SEMIFLEX
		DETECTOR_REFERENCE_RADIUS=2.75
		DETECTOR_REFERENCE_NAME=PTW 31010 Semiflex
		DETECTOR_REFERENCE_SN=0000
		DETECTOR_REFERENCE_IS_CALIBRATED=0
		DETECTOR_REFERENCE_CALIBRATION=300000000.00
		REF_FIELD_DEPTH=100.00
		REF_FIELD_DEFINED=ISOCENTER
		REF_FIELD_INPLANE=100.00
		REF_FIELD_CROSSPLANE=100.00
		REF_SCAN_POSITIONS=-130.00;-125.00;-120.00;-115.00;-110.00;-105.00;-100.00;-95.00;-90.00;-85.00;-80.00;-78.00;-76.00;-74.00;-72.00;-70.00;-68.00;-66.00;-64.00;-62.00;-60.00;-59.00;-58.00;-57.00;-56.00;-55.00;-54.00;-53.00;-52.00;-51.00;-50.00;-49.00;-48.00;-47.00;-46.00;-45.00;-44.00;-43.00;-42.00;-41.00;-40.00;-38.00;-36.00;-34.00;-32.00;-30.00;-28.00;-26.00;-24.00;-21.00;-18.00;-15.00;-12.00;-9.00;-6.00;-3.00;0.00;3.00;6.00;9.00;12.00;15.00;18.00;21.00;24.00;26.00;28.00;30.00;32.00;34.00;36.00;38.00;40.00;41.00;42.00;43.00;44.00;45.00;46.00;47.00;48.00;49.00;50.00;51.00;52.00;53.00;54.00;55.00;56.00;57.00;58.00;59.00;60.00;62.00;64.00;66.00;68.00;70.00;72.00;74.00;76.00;78.00;80.00;85.00;90.00;95.00;100.00;105.00;110.00;115.00;120.00;125.00;130.00;
		REF_OVERSCAN_FACTOR=1.00
		SCAN_CURVETYPE=CROSSPLANE_PROFILE
		SCAN_DEPTH=10.00
		SCAN_OFFAXIS_INPLANE=0.00
		SCAN_OFFAXIS_CROSSPLANE=3.60
		SCAN_ANGLE=0.00
		SCAN_DIAGONAL=NOT_DIAGONAL
		SCAN_DIRECTION=POSITIVE
		MEAS_MEDIUM=PMMA
		MEAS_PRESET=REFERENCE_DOSEMETER
		MEAS_TIME=1.000
		MEAS_UNIT=A.U.
		SCAN_SPEEDS=20.00; 5.00;40.00; 5.00;100.00; 5.00;270.00; 5.00;
		DELAY_TIMES=10.00; 0.500;150.00; 0.000;270.00; 0.000;
		INCLINATION_ANGLE=0.00
		PRESSURE=1013.25
		TEMPERATURE=20.00
		NORM_TEMPERATURE=20.00
		CORRECTION_FACTOR=1.0000
		EXPECTED_MAX_DOSE_RATE=1.00
		BEGIN_DATA
			-309.30		321.88E-06		2.1996E+00
			-304.62		346.43E-06		2.1996E+00
			-299.93		368.25E-06		2.1996E+00
			-295.24		401.31E-06		2.1978E+00
			-293.37		417.69E-06		2.1978E+00
			-291.49		425.88E-06		2.1978E+00
			-289.62		442.26E-06		2.1978E+00
			-287.75		463.72E-06		2.1996E+00
			-285.87		480.09E-06		2.1996E+00
			-284.00		493.73E-06		2.1996E+00
			-282.12		510.09E-06		2.1996E+00
			-280.25		531.48E-06		2.2014E+00
			-278.37		553.74E-06		2.1996E+00
			-276.50		578.29E-06		2.1996E+00
			-275.56		595.14E-06		2.1978E+00
			-274.62		619.20E-06		2.1996E+00
			-273.69		647.01E-06		2.1978E+00
			-272.75		692.85E-06		2.1996E+00
			-271.81		761.67E-06		2.1978E+00
			-270.87		868.14E-06		2.1978E+00
			-269.94		1.1057E-03		2.1978E+00
			-269.00		1.5152E-03		2.1978E+00
			-268.06		2.2250E-03		2.1978E+00
			-267.13		3.2705E-03		2.1978E+00
			-266.19		4.4035E-03		2.1978E+00
			-265.25		5.1855E-03		2.1996E+00
			-264.31		5.5610E-03		2.1978E+00
			-263.38		5.7256E-03		2.1996E+00
			-262.44		5.8094E-03		2.1978E+00
			-261.50		5.8668E-03		2.1978E+00
			-260.56		5.9214E-03		2.1978E+00
			-259.63		5.9569E-03		2.1978E+00
			-258.69		5.9924E-03		2.1978E+00
			-257.75		5.9984E-03		2.1996E+00
			-255.88		6.0661E-03		2.1978E+00
			-254.00		6.0961E-03		2.1978E+00
			-252.13		6.1097E-03		2.1978E+00
			-250.25		6.1589E-03		2.1978E+00
			-248.38		6.2264E-03		2.1942E+00
			-246.51		6.2514E-03		2.1960E+00
			-244.63		6.2681E-03		2.1978E+00
			-242.76		6.3200E-03		2.1978E+00
			-239.94		6.3827E-03		2.1978E+00
			-237.13		6.4372E-03		2.1960E+00
			-234.32		6.5055E-03		2.1960E+00
			-231.51		6.5355E-03		2.1960E+00
			-228.70		6.6148E-03		2.1960E+00
			-225.89		6.6694E-03		2.1960E+00
			-223.07		6.7195E-03		2.1582E+00
			-220.26		6.7943E-03		2.2086E+00
			-217.45		6.8488E-03		2.2068E+00
			-214.64		6.8921E-03		2.2086E+00
			-211.83		6.9361E-03		2.2050E+00
			-209.01		7.0201E-03		2.2068E+00
			-206.20		7.0660E-03		2.2086E+00
			-203.39		7.1312E-03		2.2086E+00
			-200.58		7.1996E-03		2.2068E+00
			-197.77		7.2539E-03		2.2068E+00
			-194.95		7.3110E-03		2.2068E+00
			-192.14		7.3709E-03		2.2068E+00
			-189.33		7.4721E-03		2.2050E+00
			-186.52		7.5129E-03		2.2050E+00
			-183.71		7.5782E-03		2.2050E+00
			-180.90		7.6354E-03		2.2050E+00
			-178.08		7.7080E-03		2.2068E+00
			-175.27		7.7678E-03		2.2068E+00
			-172.46		7.8422E-03		2.2050E+00
			-169.65		7.9075E-03		2.2050E+00
			-166.84		7.9782E-03		2.2050E+00
			-164.02		8.0218E-03		2.2050E+00
			-161.21		8.1170E-03		2.2050E+00
			-158.40		8.1890E-03		2.2032E+00
			-155.59		8.2489E-03		2.2032E+00
			-152.78		8.3129E-03		2.2050E+00
			-149.97		8.4123E-03		2.2032E+00
			-147.15		8.4653E-03		2.2050E+00
			-144.34		8.5306E-03		2.2050E+00
			-141.53		8.6438E-03		2.2032E+00
			-138.72		8.6983E-03		2.2032E+00
			-135.91		8.7636E-03		2.2032E+00
			-133.09		8.8698E-03		2.2032E+00
			-130.28		8.9025E-03		2.2032E+00
			-127.47		9.0114E-03		2.2032E+00
			-124.66		9.1006E-03		2.2014E+00
			-121.85		9.1449E-03		2.2032E+00
			-119.03		9.2402E-03		2.2032E+00
			-116.22		9.3246E-03		2.2032E+00
			-113.41		9.4222E-03		2.2014E+00
			-110.60		9.4930E-03		2.2014E+00
			-107.79		9.5670E-03		2.2032E+00
			-104.98		9.6811E-03		2.2014E+00
			-102.16		9.7522E-03		2.2032E+00
			-99.35		9.8420E-03		2.2032E+00
			-96.54		9.9074E-03		2.2032E+00
			-93.73		10.030E-03		2.2014E+00
			-90.92		10.115E-03		2.1996E+00
			-88.10		10.204E-03		2.2014E+00
			-85.29		10.290E-03		2.1546E+00
			-82.48		10.374E-03		2.1996E+00
			-79.67		10.488E-03		2.1996E+00
			-76.86		10.589E-03		2.1996E+00
			-74.05		10.666E-03		2.1996E+00
			-71.23		10.753E-03		2.1996E+00
			-68.42		10.846E-03		2.1978E+00
			-65.61		10.957E-03		2.1996E+00
			-62.80		11.054E-03		2.1978E+00
			-59.99		11.133E-03		2.1978E+00
			-57.17		11.207E-03		2.1978E+00
			-54.36		11.275E-03		2.1978E+00
			-51.55		11.362E-03		2.1978E+00
			-48.74		11.488E-03		2.1978E+00
			-45.93		11.559E-03		2.1978E+00
			-43.11		11.643E-03		2.1978E+00
			-40.30		11.713E-03		2.1960E+00
			-37.49		11.792E-03		2.1960E+00
			-34.68		11.852E-03		2.1960E+00
			-31.87		11.955E-03		2.1942E+00
			-29.06		12.036E-03		2.1960E+00
			-26.24		12.060E-03		2.1960E+00
			-23.43		12.112E-03		2.1960E+00
			-20.62		12.216E-03		2.1960E+00
			-17.81		12.234E-03		2.1942E+00
			-15.00		12.264E-03		2.1942E+00
			-12.18		12.300E-03		2.1942E+00
			-9.37		12.341E-03		2.1942E+00
			-6.56		12.320E-03		2.1960E+00
			-3.75		12.361E-03		2.1960E+00
			-0.94		12.357E-03		2.1942E+00
			0.00		12.314E-03		2.1960E+00
			0.94		12.333E-03		2.1960E+00
			3.75		12.324E-03		2.1942E+00
			6.56		12.297E-03		2.1942E+00
			9.37		12.280E-03		2.1978E+00
			12.18		12.236E-03		2.1978E+00
			15.00		12.208E-03		2.1960E+00
			17.81		12.151E-03		2.1978E+00
			20.62		12.080E-03		2.1978E+00
			23.43		12.039E-03		2.1978E+00
			26.24		12.049E-03		2.1960E+00
			29.06		11.946E-03		2.1978E+00
			31.87		11.867E-03		2.1978E+00
			34.68		11.788E-03		2.1978E+00
			37.49		11.698E-03		2.1978E+00
			40.30		11.650E-03		2.1996E+00
			43.11		11.526E-03		2.1978E+00
			45.93		11.465E-03		2.1996E+00
			48.74		11.378E-03		2.1996E+00
			51.55		11.323E-03		2.1996E+00
			54.36		11.206E-03		2.1996E+00
			57.17		11.140E-03		2.1996E+00
			59.99		11.002E-03		2.1978E+00
			62.80		10.980E-03		2.1978E+00
			65.61		10.859E-03		2.2014E+00
			68.42		10.762E-03		2.1978E+00
			71.23		10.710E-03		2.1978E+00
			74.05		10.571E-03		2.1978E+00
			76.86		10.508E-03		2.1960E+00
			79.67		10.407E-03		2.1978E+00
			82.48		10.325E-03		2.1978E+00
			85.29		10.227E-03		2.1978E+00
			88.10		10.126E-03		2.1978E+00
			90.92		10.041E-03		2.1978E+00
			93.73		9.9672E-03		2.1978E+00
			96.54		9.8718E-03		2.1996E+00
			99.35		9.8089E-03		2.1978E+00
		END_DATA
	END_SCAN  1
END_SCAN_DATA
