BEGIN_SCAN_DATA
	FORMAT=CC-Export V1.9                  
	FILE_CREATION_DATE=01-Aug-2015 20:03:32
	LAST_MODIFIED=01-Aug-2015 20:03:32
	BEGIN_SCAN  1
		TASK_NAME=tba PDD Profiles
		PROGRAM=tbaScan
		COMMENT=MicroDiamond P1
		MEAS_DATE=01-Aug-2015 19:57:07
		LINAC=J1 MRL
		MODALITY=X
		ISOCENTER=1000.00
		INPLANE_AXIS=Y
		CROSSPLANE_AXIS=X
		DEPTH_AXIS=Z
		INPLANE_AXIS_DIR=TARGET_GUN
		CROSSPLANE_AXIS_DIR=LEFT_RIGHT
		DEPTH_AXIS_DIR=UP_DOWN
		ENERGY=7.00
		NOMINAL_DMAX=17.00
		SSD=1335.00
		SCD=494.00
		BLOCK=0
		WEDGE_ANGLE=0.00
		FIELD_INPLANE=100.00
		FIELD_CROSSPLANE=100.00
		FIELD_TYPE=RECTANGULAR
		GANTRY=0.00
		GANTRY_UPRIGHT_POSITION=0
		GANTRY_ROTATION=CW
		COLL_ANGLE=0.00
		COLL_OFFSET_INPLANE=0.00
		COLL_OFFSET_CROSSPLANE=0.00
		SCAN_DEVICE=MP3
		SCAN_DEVICE_SETUP=BARA_LEFT_RIGHT
		ELECTROMETER=TANDEM
		RANGE_FIELD=LOW
		RANGE_REFERENCE=AUTO
		DETECTOR=DIAMOND_DETECTOR
		DETECTOR_RADIUS=0.00
		DETECTOR_NAME=PTW 60003 Diamond
		DETECTOR_SN=0000
		DETECTOR_CALIBRATION=10000000.00
		DETECTOR_IS_CALIBRATED=0
		DETECTOR_REFERENCE=THIMBLE_CHAMBER
		DETECTOR_REFERENCE_SUBCODE=SEMIFLEX
		DETECTOR_REFERENCE_RADIUS=2.75
		DETECTOR_REFERENCE_NAME=PTW 31010 Semiflex
		DETECTOR_REFERENCE_SN=0000
		DETECTOR_REFERENCE_IS_CALIBRATED=0
		DETECTOR_REFERENCE_CALIBRATION=300000000.00
		DETECTOR_HV=0.0
		DETECTOR_REFERENCE_HV=-400.0
		REF_FIELD_DEPTH=-335.00
		REF_FIELD_DEFINED=ISOCENTER
		REF_FIELD_INPLANE=100.00
		REF_FIELD_CROSSPLANE=100.00
		REF_SCAN_POSITIONS=-5.00;-4.50;-4.00;-3.50;-3.00;-2.50;-2.00;-1.50;-1.00;-0.50;0.00;0.50;1.00;1.50;2.00;2.50;3.00;3.50;4.00;4.50;5.00;5.50;6.00;6.50;7.00;7.50;8.00;8.50;9.00;9.50;10.00;10.50;11.00;11.50;12.00;12.50;13.00;13.50;14.00;14.50;15.00;15.50;16.00;16.50;17.00;17.50;18.00;18.50;19.00;19.50;20.00;20.50;21.00;21.50;22.00;22.50;23.00;23.50;24.00;24.50;25.00;25.50;26.00;26.50;27.00;27.50;28.00;28.50;29.00;29.50;30.00;31.00;32.00;33.00;34.00;35.00;36.00;37.00;38.00;39.00;40.00;41.00;42.00;43.00;44.00;45.00;46.00;47.00;48.00;49.00;50.00;51.00;52.00;53.00;54.00;55.00;56.00;57.00;58.00;59.00;60.00;61.00;62.00;63.00;64.00;65.00;66.00;67.00;68.00;69.00;70.00;71.00;72.00;73.00;74.00;75.00;76.00;77.00;78.00;79.00;80.00;81.00;82.00;83.00;84.00;85.00;86.00;87.00;88.00;89.00;90.00;91.00;92.00;93.00;94.00;95.00;96.00;97.00;98.00;99.00;100.00;105.00;110.00;115.00;120.00;125.00;130.00;135.00;140.00;145.00;150.00;155.00;160.00;165.00;170.00;175.00;180.00;185.00;190.00;195.00;200.00;205.00;210.00;215.00;220.00;225.00;230.00;235.00;240.00;245.00;250.00;255.00;260.00;265.00;270.00;
		SCAN_CURVETYPE=PDD
		SCAN_OFFAXIS_INPLANE=0.00
		SCAN_OFFAXIS_CROSSPLANE=0.00
		SCAN_ANGLE=0.00
		SCAN_DIAGONAL=NOT_DIAGONAL
		SCAN_DIRECTION=NEGATIVE
		MEAS_MEDIUM=PMMA
		MEAS_PRESET=REFERENCE_DOSEMETER
		MEAS_TIME=1.000
		MEAS_UNIT=A.U.
		SCAN_SPEEDS=20.00; 5.00;40.00; 5.00;100.00; 5.00;270.00; 5.00;
		DELAY_TIMES=10.00; 0.500;150.00; 0.000;270.00; 0.000;
		PRESSURE=1013.25
		TEMPERATURE=20.00
		NORM_TEMPERATURE=20.00
		CORRECTION_FACTOR=1.0000
		EXPECTED_MAX_DOSE_RATE=1.00
		BEGIN_DATA
			-5.00		5.6892E-03		2.3202E+00
			-4.50		5.6685E-03		2.3202E+00
			-4.00		5.6651E-03		2.3184E+00
			-3.50		5.6703E-03		2.3184E+00
			-3.00		5.6548E-03		2.3184E+00
			-2.50		5.6713E-03		2.3148E+00
			-2.00		5.6757E-03		2.3130E+00
			-1.50		5.6661E-03		2.2968E+00
			-1.00		5.6654E-03		2.3130E+00
			-0.50		5.6602E-03		2.3130E+00
			0.00		5.6628E-03		2.3130E+00
			0.50		5.6880E-03		2.3112E+00
			1.00		5.7399E-03		2.3112E+00
			1.50		6.4434E-03		2.3112E+00
			2.00		7.1236E-03		2.3112E+00
			2.50		7.6773E-03		2.3094E+00
			3.00		8.1554E-03		2.3094E+00
			3.50		8.5959E-03		2.3076E+00
			4.00		8.9366E-03		2.3076E+00
			4.50		9.2552E-03		2.3040E+00
			5.00		9.5413E-03		2.3022E+00
			5.50		9.7993E-03		2.3022E+00
			6.00		10.011E-03		2.2626E+00
			6.50		10.196E-03		2.3004E+00
			7.00		10.365E-03		2.2986E+00
			7.50		10.502E-03		2.2968E+00
			8.00		10.667E-03		2.2950E+00
			8.50		10.771E-03		2.2950E+00
			9.00		10.856E-03		2.2914E+00
			9.50		10.952E-03		2.2932E+00
			10.00		11.072E-03		2.2896E+00
			10.50		11.114E-03		2.2896E+00
			11.00		11.214E-03		2.2878E+00
			11.50		11.217E-03		2.2878E+00
			12.00		11.321E-03		2.2842E+00
			12.50		11.334E-03		2.2842E+00
			13.00		11.385E-03		2.2824E+00
			13.50		11.384E-03		2.2806E+00
			14.00		11.415E-03		2.2806E+00
			14.50		11.448E-03		2.2788E+00
			15.00		11.451E-03		2.2788E+00
			15.50		11.473E-03		2.2770E+00
			16.00		11.474E-03		2.2788E+00
			16.50		11.514E-03		2.2752E+00
			17.00		11.532E-03		2.2716E+00
			17.50		11.499E-03		2.2734E+00
			18.00		11.486E-03		2.2698E+00
			18.50		11.507E-03		2.2698E+00
			19.00		11.485E-03		2.2662E+00
			19.50		11.468E-03		2.2644E+00
			20.00		11.432E-03		2.2626E+00
			20.50		11.473E-03		2.2608E+00
			21.00		11.424E-03		2.2590E+00
			21.50		11.455E-03		2.2518E+00
			22.00		11.421E-03		2.2500E+00
			22.50		11.394E-03		2.2464E+00
			23.00		11.383E-03		2.2428E+00
			23.50		11.338E-03		2.2428E+00
			24.00		11.338E-03		2.2374E+00
			24.50		11.292E-03		2.2338E+00
			25.00		11.311E-03		2.1870E+00
			25.50		11.279E-03		2.2374E+00
			26.00		11.244E-03		2.2374E+00
			26.50		11.206E-03		2.2338E+00
			27.00		11.207E-03		2.2320E+00
			27.50		11.175E-03		2.2320E+00
			28.00		11.157E-03		2.2302E+00
			28.50		11.127E-03		2.2302E+00
			29.00		11.093E-03		2.2284E+00
			29.50		11.094E-03		2.2266E+00
			30.00		11.082E-03		2.2284E+00
			31.00		11.022E-03		2.2320E+00
			32.00		10.988E-03		2.2338E+00
			33.00		10.928E-03		2.2374E+00
			34.00		10.890E-03		2.2392E+00
			35.00		10.835E-03		2.2428E+00
			36.00		10.803E-03		2.2410E+00
			37.00		10.739E-03		2.2410E+00
			38.00		10.680E-03		2.2428E+00
			39.00		10.666E-03		2.2428E+00
			40.00		10.615E-03		2.2446E+00
			41.00		10.548E-03		2.2428E+00
			42.00		10.497E-03		2.2464E+00
			43.00		10.435E-03		2.2464E+00
			44.00		10.406E-03		2.2464E+00
			45.00		10.358E-03		2.2464E+00
			46.00		10.313E-03		2.2446E+00
			47.00		10.267E-03		2.2446E+00
			48.00		10.238E-03		2.2464E+00
			49.00		10.152E-03		2.2428E+00
			50.00		10.142E-03		2.2428E+00
			51.00		10.070E-03		2.2428E+00
			52.00		10.016E-03		2.2428E+00
			53.00		9.9947E-03		2.2428E+00
			54.00		9.9411E-03		2.2410E+00
			55.00		9.9143E-03		2.2392E+00
			56.00		9.8606E-03		2.2374E+00
			57.00		9.8044E-03		2.2392E+00
			58.00		9.7349E-03		2.2410E+00
			59.00		9.7265E-03		2.2374E+00
			60.00		9.6779E-03		2.2356E+00
			61.00		9.6058E-03		2.2374E+00
			62.00		9.5595E-03		2.2338E+00
			63.00		9.5223E-03		2.2356E+00
			64.00		9.4579E-03		2.2356E+00
			65.00		9.4145E-03		2.2338E+00
			66.00		9.3763E-03		2.2320E+00
			67.00		9.3220E-03		2.2302E+00
			68.00		9.2817E-03		2.2302E+00
			69.00		9.2231E-03		2.2320E+00
			70.00		9.1835E-03		2.2266E+00
			71.00		9.1620E-03		2.2266E+00
			72.00		9.1161E-03		2.2266E+00
			73.00		9.0649E-03		2.2266E+00
			74.00		9.0099E-03		2.1816E+00
			75.00		8.9717E-03		2.2230E+00
			76.00		8.9420E-03		2.2230E+00
			77.00		8.8898E-03		2.2212E+00
			78.00		8.8294E-03		2.2194E+00
			79.00		8.7987E-03		2.2176E+00
			80.00		8.7365E-03		2.2176E+00
			81.00		8.7002E-03		2.2158E+00
			82.00		8.6542E-03		2.2158E+00
			83.00		8.6179E-03		2.2140E+00
			84.00		8.5679E-03		2.2122E+00
			85.00		8.5016E-03		2.2104E+00
			86.00		8.4705E-03		2.2086E+00
			87.00		8.4379E-03		2.2086E+00
			88.00		8.4149E-03		2.2068E+00
			89.00		8.3619E-03		2.2050E+00
			90.00		8.3088E-03		2.2032E+00
			91.00		8.2693E-03		2.2014E+00
			92.00		8.2351E-03		2.1996E+00
			93.00		8.1478E-03		2.1996E+00
			94.00		8.1436E-03		2.1978E+00
			95.00		8.0956E-03		2.1960E+00
			96.00		8.0859E-03		2.1942E+00
			97.00		8.0268E-03		2.1924E+00
			98.00		7.9951E-03		2.1906E+00
			99.00		7.9266E-03		2.1906E+00
			100.00		7.8765E-03		2.1870E+00
			105.00		7.6790E-03		2.1870E+00
			110.00		7.4890E-03		2.1816E+00
			115.00		7.2772E-03		2.1816E+00
			120.00		7.1188E-03		2.1762E+00
			125.00		6.9203E-03		2.1762E+00
			130.00		6.7440E-03		2.1726E+00
			135.00		6.5533E-03		2.1708E+00
			140.00		6.3621E-03		2.1672E+00
			145.00		6.1889E-03		2.1600E+00
			150.00		6.0629E-03		2.1564E+00
			155.00		5.8953E-03		2.1546E+00
			160.00		5.7370E-03		2.1492E+00
			165.00		5.5845E-03		2.1456E+00
			170.00		5.4209E-03		2.1384E+00
			175.00		5.2956E-03		2.1312E+00
			180.00		5.1384E-03		2.1240E+00
			185.00		5.0057E-03		2.1168E+00
			190.00		4.8749E-03		2.1096E+00
			195.00		4.7370E-03		2.0988E+00
			200.00		4.6099E-03		2.0916E+00
			205.00		4.4915E-03		2.0826E+00
			210.00		4.3654E-03		2.0754E+00
			215.00		4.2525E-03		2.0628E+00
			220.00		4.1309E-03		2.0538E+00
			225.00		4.0405E-03		2.0448E+00
			230.00		3.9145E-03		2.0340E+00
			235.00		3.8218E-03		2.0268E+00
			240.00		3.7054E-03		2.0160E+00
			245.00		3.6171E-03		2.0088E+00
			250.00		3.5164E-03		1.9998E+00
			255.00		3.4242E-03		1.9818E+00
			260.00		3.3243E-03		1.9890E+00
			265.00		3.2547E-03		1.9836E+00
			270.00		3.1512E-03		1.9764E+00
		END_DATA
	END_SCAN  1
END_SCAN_DATA
