BEGIN_SCAN_DATA
	FORMAT=CC-Export V1.9                  
	FILE_CREATION_DATE=11-Aug-2015 16:18:47
	LAST_MODIFIED=11-Aug-2015 16:18:47
	BEGIN_SCAN  1
		TASK_NAME=tba PDD Profiles
		PROGRAM=tbaScan
		COMMENT=MicroDiamond P2
		MEAS_DATE=04-Aug-2015 15:40:10
		LINAC=J1 MRL
		MODALITY=X
		ISOCENTER=1435.00
		INPLANE_AXIS=Y
		CROSSPLANE_AXIS=X
		DEPTH_AXIS=Z
		INPLANE_AXIS_DIR=TARGET_GUN
		CROSSPLANE_AXIS_DIR=LEFT_RIGHT
		DEPTH_AXIS_DIR=UP_DOWN
		ENERGY=7.00
		NOMINAL_DMAX=17.00
		SSD=1335.00
		SCD=494.00
		WEDGE_ANGLE=0.00
		FIELD_INPLANE=220.00
		FIELD_CROSSPLANE=572.00
		FIELD_TYPE=RECTANGULAR
		GANTRY=0.00
		GANTRY_UPRIGHT_POSITION=0
		GANTRY_ROTATION=CW
		COLL_ANGLE=0.00
		COLL_OFFSET_INPLANE=0.00
		COLL_OFFSET_CROSSPLANE=0.00
		SCAN_DEVICE=MP3
		SCAN_DEVICE_SETUP=BARA_LEFT_RIGHT
		ELECTROMETER=TANDEM
		RANGE_FIELD=LOW
		RANGE_REFERENCE=AUTO
		DETECTOR=DIAMOND_DETECTOR
		DETECTOR_RADIUS=0.00
		DETECTOR_NAME=PTW 60003 Diamond
		DETECTOR_SN=0000
		DETECTOR_CALIBRATION=10000000.00
		DETECTOR_IS_CALIBRATED=0
		DETECTOR_REFERENCE=THIMBLE_CHAMBER
		DETECTOR_REFERENCE_SUBCODE=SEMIFLEX
		DETECTOR_REFERENCE_RADIUS=2.75
		DETECTOR_REFERENCE_NAME=PTW 31010 Semiflex
		DETECTOR_REFERENCE_SN=0000
		DETECTOR_REFERENCE_IS_CALIBRATED=0
		DETECTOR_REFERENCE_CALIBRATION=300000000.00
		REF_FIELD_DEPTH=100.00
		REF_FIELD_DEFINED=ISOCENTER
		REF_FIELD_INPLANE=100.00
		REF_FIELD_CROSSPLANE=100.00
		REF_SCAN_POSITIONS=-130.00;-125.00;-120.00;-115.00;-110.00;-105.00;-100.00;-95.00;-90.00;-85.00;-80.00;-78.00;-76.00;-74.00;-72.00;-70.00;-68.00;-66.00;-64.00;-62.00;-60.00;-59.00;-58.00;-57.00;-56.00;-55.00;-54.00;-53.00;-52.00;-51.00;-50.00;-49.00;-48.00;-47.00;-46.00;-45.00;-44.00;-43.00;-42.00;-41.00;-40.00;-38.00;-36.00;-34.00;-32.00;-30.00;-28.00;-26.00;-24.00;-21.00;-18.00;-15.00;-12.00;-9.00;-6.00;-3.00;0.00;3.00;6.00;9.00;12.00;15.00;18.00;21.00;24.00;26.00;28.00;30.00;32.00;34.00;36.00;38.00;40.00;41.00;42.00;43.00;44.00;45.00;46.00;47.00;48.00;49.00;50.00;51.00;52.00;53.00;54.00;55.00;56.00;57.00;58.00;59.00;60.00;62.00;64.00;66.00;68.00;70.00;72.00;74.00;76.00;78.00;80.00;85.00;90.00;95.00;100.00;105.00;110.00;115.00;120.00;125.00;130.00;
		REF_OVERSCAN_FACTOR=1.00
		SCAN_CURVETYPE=CROSSPLANE_PROFILE
		SCAN_DEPTH=10.00
		SCAN_OFFAXIS_INPLANE=0.00
		SCAN_OFFAXIS_CROSSPLANE=3.60
		SCAN_ANGLE=0.00
		SCAN_DIAGONAL=NOT_DIAGONAL
		SCAN_DIRECTION=POSITIVE
		MEAS_MEDIUM=PMMA
		MEAS_PRESET=REFERENCE_DOSEMETER
		MEAS_TIME=1.000
		MEAS_UNIT=A.U.
		SCAN_SPEEDS=20.00; 5.00;40.00; 5.00;100.00; 5.00;270.00; 5.00;
		DELAY_TIMES=10.00; 0.500;150.00; 0.000;270.00; 0.000;
		INCLINATION_ANGLE=0.00
		PRESSURE=1013.25
		TEMPERATURE=20.00
		NORM_TEMPERATURE=20.00
		CORRECTION_FACTOR=1.0000
		EXPECTED_MAX_DOSE_RATE=1.00
		BEGIN_DATA
			-89.04		10.857E-03		2.0664E+00
			-86.23		10.992E-03		2.0628E+00
			-83.42		11.018E-03		2.0628E+00
			-80.61		11.132E-03		2.0610E+00
			-77.79		11.229E-03		2.0610E+00
			-74.98		11.344E-03		2.0628E+00
			-72.17		11.426E-03		2.0610E+00
			-69.36		11.559E-03		2.0592E+00
			-66.55		11.610E-03		2.0610E+00
			-63.74		11.716E-03		2.0592E+00
			-60.92		11.843E-03		2.0574E+00
			-58.11		11.943E-03		2.0592E+00
			-55.30		12.030E-03		2.0574E+00
			-52.49		12.131E-03		2.0556E+00
			-49.68		12.230E-03		2.0556E+00
			-46.86		12.248E-03		2.0574E+00
			-44.05		12.369E-03		2.0592E+00
			-41.24		12.433E-03		2.0592E+00
			-38.43		12.551E-03		2.0556E+00
			-35.62		12.627E-03		2.0556E+00
			-32.80		12.714E-03		2.0538E+00
			-29.99		12.767E-03		2.0538E+00
			-27.18		12.837E-03		2.0538E+00
			-24.37		12.931E-03		2.0556E+00
			-21.56		12.954E-03		2.0538E+00
			-18.75		12.986E-03		2.0538E+00
			-15.93		13.047E-03		2.0520E+00
			-13.12		13.085E-03		2.0520E+00
			-10.31		13.111E-03		2.0520E+00
			-7.50		13.091E-03		2.0520E+00
			-4.69		13.134E-03		2.0502E+00
			-1.87		13.111E-03		2.0538E+00
			0.00		13.123E-03		2.0520E+00
			1.87		13.114E-03		2.0520E+00
			4.69		13.102E-03		2.0520E+00
			7.50		13.058E-03		2.0520E+00
			10.31		13.049E-03		2.0502E+00
			13.12		12.982E-03		2.0520E+00
			15.93		12.962E-03		2.0502E+00
			18.75		12.863E-03		2.0556E+00
			21.56		12.828E-03		2.0538E+00
			24.37		12.787E-03		2.0520E+00
			27.18		12.728E-03		2.0520E+00
			29.99		12.629E-03		2.0520E+00
			32.80		12.553E-03		2.0520E+00
			35.62		12.461E-03		2.0502E+00
			38.43		12.403E-03		2.0502E+00
			41.24		12.305E-03		2.0484E+00
			44.05		12.261E-03		2.0484E+00
			46.86		12.138E-03		2.0484E+00
			49.68		12.045E-03		2.0484E+00
			52.49		11.957E-03		2.0484E+00
			55.30		11.839E-03		2.0484E+00
			58.11		11.768E-03		2.0502E+00
			60.92		11.705E-03		2.0484E+00
			63.74		11.579E-03		2.0520E+00
			66.55		11.509E-03		2.0520E+00
			69.36		11.376E-03		2.0196E+00
			72.17		11.285E-03		2.0502E+00
			74.98		11.208E-03		2.0520E+00
			77.79		11.078E-03		2.0538E+00
			80.61		11.025E-03		2.0538E+00
			83.42		10.917E-03		2.0556E+00
			86.23		10.796E-03		2.0574E+00
			89.04		10.694E-03		2.0574E+00
			91.85		10.624E-03		2.0574E+00
			94.67		10.551E-03		2.0574E+00
			97.48		10.447E-03		2.0556E+00
			100.29		10.327E-03		2.0574E+00
			103.10		10.251E-03		2.0574E+00
			105.91		10.178E-03		2.0556E+00
			108.72		10.102E-03		2.0520E+00
			111.54		10.000E-03		2.0538E+00
			114.35		9.8977E-03		2.0538E+00
			117.16		9.8250E-03		2.0574E+00
			119.97		9.7463E-03		2.0574E+00
			122.78		9.6497E-03		2.0556E+00
			125.60		9.6030E-03		2.0556E+00
			128.41		9.4547E-03		2.0574E+00
			131.22		9.4162E-03		2.0556E+00
			134.03		9.3141E-03		2.0556E+00
			136.84		9.2353E-03		2.0556E+00
			139.66		9.1594E-03		2.0556E+00
			142.47		9.0814E-03		2.0574E+00
			145.28		9.0222E-03		2.0556E+00
			148.09		8.9268E-03		2.0574E+00
			150.90		8.8441E-03		2.0556E+00
			153.71		8.7868E-03		2.0574E+00
			156.53		8.7081E-03		2.0574E+00
			159.34		8.6247E-03		2.0592E+00
			162.15		8.5593E-03		2.0574E+00
			164.96		8.4835E-03		2.0574E+00
			167.77		8.4151E-03		2.0556E+00
			170.59		8.3523E-03		2.0574E+00
			173.40		8.2998E-03		2.0574E+00
			176.21		8.2181E-03		2.0574E+00
			179.02		8.1627E-03		2.0574E+00
			181.83		8.0898E-03		2.0574E+00
			184.64		7.9808E-03		2.0592E+00
			187.46		7.9557E-03		2.0574E+00
			190.27		7.8904E-03		2.0592E+00
			193.08		7.8099E-03		2.0574E+00
			195.89		7.7535E-03		2.0592E+00
			198.70		7.6932E-03		2.0574E+00
			201.52		7.6145E-03		2.0574E+00
			204.33		7.5670E-03		2.0592E+00
			207.14		7.4898E-03		2.0556E+00
			209.95		7.4361E-03		2.0664E+00
			212.76		7.3554E-03		2.0646E+00
			215.57		7.2967E-03		2.0664E+00
			218.39		7.2624E-03		2.0646E+00
			221.20		7.2014E-03		2.0646E+00
			224.01		7.1379E-03		2.0628E+00
			226.82		7.0684E-03		2.0610E+00
			229.63		7.0099E-03		2.0628E+00
			232.45		6.9374E-03		2.0610E+00
			235.26		6.8672E-03		2.0646E+00
			238.07		6.8470E-03		2.0628E+00
			240.88		6.7656E-03		2.0610E+00
			243.69		6.6928E-03		2.0628E+00
			245.57		6.6579E-03		2.0610E+00
			247.44		6.6172E-03		2.0610E+00
			249.32		6.5881E-03		2.0610E+00
			251.19		6.5444E-03		2.0610E+00
			253.07		6.5095E-03		2.0610E+00
			254.94		6.4540E-03		2.0592E+00
			256.82		6.4163E-03		2.0610E+00
			258.69		6.3636E-03		2.0592E+00
			259.63		6.3083E-03		2.0592E+00
			260.56		6.2853E-03		2.0610E+00
			261.50		6.2646E-03		2.0592E+00
			262.44		6.1859E-03		2.0592E+00
			263.38		6.1101E-03		2.0592E+00
			264.31		5.9470E-03		2.0592E+00
			265.25		5.5803E-03		1.9386E+00
			266.19		4.8530E-03		2.0610E+00
			267.13		3.7089E-03		2.0610E+00
			268.06		2.4629E-03		2.0610E+00
			269.00		1.5983E-03		2.0610E+00
			269.94		1.1295E-03		2.0610E+00
			270.87		905.39E-06		2.0610E+00
			271.81		796.15E-06		2.0574E+00
			272.75		725.52E-06		2.0592E+00
			273.69		678.90E-06		2.0592E+00
			274.62		655.02E-06		2.0610E+00
			275.56		627.01E-06		2.0574E+00
			276.50		614.80E-06		2.0592E+00
			277.44		597.32E-06		2.0592E+00
			279.31		579.84E-06		2.0592E+00
			281.18		548.26E-06		2.0574E+00
			283.06		533.68E-06		2.0574E+00
			284.93		507.44E-06		2.0574E+00
			286.81		487.02E-06		2.0574E+00
			288.68		475.36E-06		2.0574E+00
			290.56		463.69E-06		2.0574E+00
			292.43		437.83E-06		2.0556E+00
			294.31		436.91E-06		1.9638E+00
			296.18		416.67E-06		2.0592E+00
			300.87		390.44E-06		2.0592E+00
			305.55		367.13E-06		2.0592E+00
			310.24		335.08E-06		2.0592E+00
			314.93		317.88E-06		2.0574E+00
			319.61		306.21E-06		2.0574E+00
		END_DATA
	END_SCAN  1
END_SCAN_DATA
