BEGIN_SCAN_DATA
	FORMAT=CC-Export V1.9                  
	FILE_CREATION_DATE=14-Jul-2016 17:50:47
	LAST_MODIFIED=14-Jul-2016 17:50:47
	BEGIN_SCAN  1
		TASK_NAME=tba PDD Profiles
		PROGRAM=tbaScan
		MEAS_DATE=24-Jun-2016 10:43:40
		LINAC=MR-LINAC
		MODALITY=X
		ISOCENTER=1435.00
		INPLANE_AXIS=C+ inplane
		CROSSPLANE_AXIS=A+ Crosspl
		DEPTH_AXIS=B+ Down
		INPLANE_AXIS_DIR=TARGET_GUN
		CROSSPLANE_AXIS_DIR=LEFT_RIGHT
		DEPTH_AXIS_DIR=UP_DOWN
		ENERGY=6.00
		NOMINAL_DMAX=13.00
		SSD=1335.00
		SCD=357.00
		WEDGE_ANGLE=0.00
		FIELD_INPLANE=220.00
		FIELD_CROSSPLANE=572.00
		FIELD_TYPE=RECTANGULAR
		GANTRY=0.00
		GANTRY_UPRIGHT_POSITION=0
		GANTRY_ROTATION=CW
		COLL_ANGLE=0.00
		COLL_OFFSET_INPLANE=0.00
		COLL_OFFSET_CROSSPLANE=0.00
		SCAN_DEVICE=MP3
		SCAN_DEVICE_SETUP=BARA_LEFT_RIGHT
		ELECTROMETER=TANDEM
		RANGE_FIELD=AUTO
		RANGE_REFERENCE=AUTO
		DETECTOR=DIAMOND_DETECTOR
		DETECTOR_RADIUS=0.00
		DETECTOR_NAME=PTW 600019 Diamond
		DETECTOR_SN=0000
		DETECTOR_CALIBRATION=300000000.00
		DETECTOR_IS_CALIBRATED=0
		DETECTOR_REFERENCE=THIMBLE_CHAMBER
		DETECTOR_REFERENCE_SUBCODE=SEMIFLEX
		DETECTOR_REFERENCE_RADIUS=2.75
		DETECTOR_REFERENCE_NAME=PTW 31010 Semiflex
		DETECTOR_REFERENCE_SN=0000
		DETECTOR_REFERENCE_IS_CALIBRATED=0
		DETECTOR_REFERENCE_CALIBRATION=300000000.00
		DETECTOR_HV=400.0
		DETECTOR_REFERENCE_HV=400.0
		REF_FIELD_DEPTH=100.00
		REF_FIELD_DEFINED=ISOCENTER
		REF_FIELD_INPLANE=100.00
		REF_FIELD_CROSSPLANE=100.00
		REF_SCAN_POSITIONS=-130.00;-125.00;-120.00;-115.00;-110.00;-105.00;-100.00;-95.00;-90.00;-85.00;-80.00;-78.00;-76.00;-74.00;-72.00;-70.00;-68.00;-66.00;-64.00;-62.00;-60.00;-58.00;-56.00;-54.00;-52.00;-50.00;-48.00;-46.00;-44.00;-42.00;-40.00;-38.00;-36.00;-34.00;-32.00;-30.00;-25.00;-20.00;-15.00;-10.00;-5.00;0.00;5.00;10.00;15.00;20.00;25.00;30.00;32.00;34.00;36.00;38.00;40.00;42.00;44.00;46.00;48.00;50.00;52.00;54.00;56.00;58.00;60.00;62.00;64.00;66.00;68.00;70.00;72.00;74.00;76.00;78.00;80.00;85.00;90.00;95.00;100.00;105.00;110.00;115.00;120.00;125.00;130.00;
		REF_OVERSCAN_FACTOR=1.00
		SCAN_CURVETYPE=CROSSPLANE_PROFILE
		SCAN_DEPTH=50.00
		SCAN_OFFAXIS_INPLANE=0.00
		SCAN_OFFAXIS_CROSSPLANE=0.00
		SCAN_ANGLE=0.00
		SCAN_DIAGONAL=FIRST_DIAGONAL
		SCAN_DIRECTION=POSITIVE
		MEAS_MEDIUM=WATER
		MEAS_PRESET=REFERENCE_DOSEMETER
		MEAS_TIME=0.500
		MEAS_UNIT=A.U.
		SCAN_SPEEDS=20.00; 8.00;40.00; 25.00;100.00; 40.00;400.00; 50.00;
		DELAY_TIMES=20.00; 0.000;150.00; 0.000;400.00; 0.000;
		INCLINATION_ANGLE=0.00
		PRESSURE=1013.20
		TEMPERATURE=20.00
		NORM_TEMPERATURE=20.00
		CORRECTION_FACTOR=1.0000
		EXPECTED_MAX_DOSE_RATE=4.00
		BEGIN_DATA
			-312.29		7.3806E-03		12.707E+00
			-310.22		7.7011E-03		12.622E+00
			-308.16		7.7904E-03		12.709E+00
			-306.09		8.1008E-03		12.710E+00
			-304.02		8.3286E-03		12.709E+00
			-301.95		8.5694E-03		12.709E+00
			-299.88		9.0072E-03		12.710E+00
			-297.82		9.6418E-03		12.714E+00
			-295.75		12.005E-03		12.626E+00
			-293.68		22.227E-03		12.707E+00
			-291.61		33.418E-03		12.712E+00
			-289.54		40.289E-03		12.707E+00
			-287.48		44.219E-03		12.705E+00
			-285.41		47.246E-03		12.714E+00
			-283.34		49.419E-03		12.712E+00
			-281.27		51.005E-03		12.712E+00
			-279.20		52.267E-03		12.705E+00
			-277.13		53.100E-03		12.716E+00
			-275.07		54.222E-03		12.705E+00
			-269.90		55.884E-03		12.710E+00
			-264.73		57.827E-03		12.707E+00
			-259.55		59.150E-03		12.709E+00
			-254.38		60.717E-03		12.707E+00
			-249.21		62.229E-03		12.710E+00
			-244.04		63.635E-03		12.707E+00
			-238.87		64.948E-03		12.710E+00
			-233.70		66.648E-03		12.710E+00
			-228.53		68.027E-03		12.701E+00
			-223.36		69.554E-03		12.700E+00
			-218.19		70.925E-03		12.710E+00
			-213.02		72.635E-03		12.709E+00
			-207.85		74.047E-03		12.700E+00
			-202.68		75.322E-03		12.707E+00
			-197.51		76.832E-03		12.703E+00
			-192.34		78.518E-03		12.703E+00
			-187.17		79.915E-03		12.709E+00
			-182.00		81.397E-03		12.705E+00
			-176.83		82.662E-03		12.698E+00
			-171.66		84.099E-03		12.701E+00
			-166.49		86.034E-03		12.709E+00
			-161.32		87.656E-03		12.701E+00
			-156.15		89.358E-03		12.703E+00
			-150.98		90.725E-03		12.692E+00
			-145.81		92.488E-03		12.700E+00
			-140.64		93.991E-03		12.701E+00
			-135.46		95.919E-03		12.703E+00
			-130.29		97.378E-03		12.703E+00
			-125.12		99.136E-03		12.703E+00
			-119.95		101.16E-03		12.705E+00
			-114.78		102.92E-03		12.698E+00
			-109.61		104.15E-03		12.703E+00
			-104.44		106.68E-03		12.692E+00
			-99.27		108.01E-03		12.703E+00
			-94.10		109.97E-03		12.705E+00
			-88.93		111.54E-03		12.700E+00
			-83.76		113.56E-03		12.703E+00
			-78.59		115.22E-03		12.694E+00
			-73.42		117.05E-03		12.692E+00
			-68.25		118.83E-03		12.698E+00
			-63.08		120.50E-03		12.689E+00
			-57.91		122.14E-03		12.700E+00
			-52.74		123.76E-03		12.696E+00
			-47.57		125.58E-03		12.694E+00
			-42.40		126.85E-03		12.700E+00
			-37.23		128.13E-03		12.694E+00
			-32.06		129.58E-03		12.701E+00
			-26.89		130.53E-03		12.700E+00
			-21.72		131.94E-03		12.698E+00
			-16.55		132.81E-03		12.696E+00
			-11.37		133.40E-03		12.703E+00
			-6.20		133.72E-03		12.696E+00
			-1.03		133.68E-03		12.694E+00
			0.00		133.30E-03		12.696E+00
			1.03		133.91E-03		12.694E+00
			6.20		133.71E-03		12.698E+00
			11.37		133.28E-03		12.700E+00
			16.55		132.79E-03		12.696E+00
			21.72		132.31E-03		12.692E+00
			26.89		131.77E-03		12.692E+00
			32.06		130.49E-03		12.692E+00
			37.23		129.09E-03		12.700E+00
			42.40		127.53E-03		12.700E+00
			47.57		126.07E-03		12.698E+00
			52.74		124.81E-03		12.692E+00
			57.91		123.07E-03		12.696E+00
			63.08		121.80E-03		12.692E+00
			68.25		119.78E-03		12.694E+00
			73.42		118.47E-03		12.692E+00
		END_DATA
	END_SCAN  1
END_SCAN_DATA
