BEGIN_SCAN_DATA
	FORMAT=CC-Export V1.9                  
	FILE_CREATION_DATE=14-Jul-2016 17:49:13
	LAST_MODIFIED=14-Jul-2016 17:49:13
	BEGIN_SCAN  1
		TASK_NAME=tba PDD Profiles
		PROGRAM=tbaScan
		MEAS_DATE=25-Jun-2016 12:50:27
		LINAC=MR-LINAC
		MODALITY=X
		ISOCENTER=1435.00
		INPLANE_AXIS=C+ inplane
		CROSSPLANE_AXIS=A+ Crosspl
		DEPTH_AXIS=B+ Down
		INPLANE_AXIS_DIR=TARGET_GUN
		CROSSPLANE_AXIS_DIR=LEFT_RIGHT
		DEPTH_AXIS_DIR=UP_DOWN
		ENERGY=6.00
		NOMINAL_DMAX=13.00
		SSD=1335.00
		SCD=357.00
		WEDGE_ANGLE=0.00
		FIELD_INPLANE=220.00
		FIELD_CROSSPLANE=572.00
		FIELD_TYPE=RECTANGULAR
		GANTRY=0.00
		GANTRY_UPRIGHT_POSITION=0
		GANTRY_ROTATION=CW
		COLL_ANGLE=0.00
		COLL_OFFSET_INPLANE=0.00
		COLL_OFFSET_CROSSPLANE=0.00
		SCAN_DEVICE=MP3
		SCAN_DEVICE_SETUP=BARA_LEFT_RIGHT
		ELECTROMETER=TANDEM
		RANGE_FIELD=AUTO
		RANGE_REFERENCE=AUTO
		DETECTOR=DIAMOND_DETECTOR
		DETECTOR_RADIUS=0.00
		DETECTOR_NAME=PTW 600019 Diamond
		DETECTOR_SN=0000
		DETECTOR_CALIBRATION=300000000.00
		DETECTOR_IS_CALIBRATED=0
		DETECTOR_REFERENCE=THIMBLE_CHAMBER
		DETECTOR_REFERENCE_SUBCODE=SEMIFLEX
		DETECTOR_REFERENCE_RADIUS=2.75
		DETECTOR_REFERENCE_NAME=PTW 31010 Semiflex
		DETECTOR_REFERENCE_SN=0000
		DETECTOR_REFERENCE_IS_CALIBRATED=0
		DETECTOR_REFERENCE_CALIBRATION=300000000.00
		REF_FIELD_DEPTH=100.00
		REF_FIELD_DEFINED=ISOCENTER
		REF_FIELD_INPLANE=100.00
		REF_FIELD_CROSSPLANE=100.00
		REF_SCAN_POSITIONS=-130.00;-125.00;-120.00;-115.00;-110.00;-105.00;-100.00;-95.00;-90.00;-85.00;-80.00;-79.00;-78.00;-77.00;-76.00;-75.00;-74.00;-73.00;-72.00;-71.00;-70.00;-69.00;-68.00;-67.00;-66.00;-65.00;-64.00;-63.00;-62.00;-61.00;-60.00;-59.00;-58.00;-57.00;-56.00;-55.00;-54.00;-53.00;-52.00;-51.00;-50.00;-49.00;-48.00;-47.00;-46.00;-45.00;-44.00;-43.00;-42.00;-41.00;-40.00;-39.00;-38.00;-37.00;-36.00;-35.00;-34.00;-33.00;-32.00;-31.00;-30.00;-27.00;-24.00;-21.00;-18.00;-15.00;-12.00;-9.00;-6.00;-3.00;0.00;3.00;6.00;9.00;12.00;15.00;18.00;21.00;24.00;27.00;30.00;31.00;32.00;33.00;34.00;35.00;36.00;37.00;38.00;39.00;40.00;41.00;42.00;43.00;44.00;45.00;46.00;47.00;48.00;49.00;50.00;51.00;52.00;53.00;54.00;55.00;56.00;57.00;58.00;59.00;60.00;61.00;62.00;63.00;64.00;65.00;66.00;67.00;68.00;69.00;70.00;71.00;72.00;73.00;74.00;75.00;76.00;77.00;78.00;79.00;80.00;85.00;90.00;95.00;100.00;105.00;110.00;115.00;120.00;125.00;130.00;
		REF_OVERSCAN_FACTOR=1.00
		SCAN_CURVETYPE=CROSSPLANE_PROFILE
		SCAN_DEPTH=13.00
		SCAN_OFFAXIS_INPLANE=0.00
		SCAN_OFFAXIS_CROSSPLANE=0.00
		SCAN_ANGLE=0.00
		SCAN_DIAGONAL=FIRST_DIAGONAL
		SCAN_DIRECTION=POSITIVE
		MEAS_MEDIUM=WATER
		MEAS_PRESET=REFERENCE_DOSEMETER
		MEAS_TIME=0.500
		MEAS_UNIT=A.U.
		SCAN_SPEEDS=20.00; 8.00;40.00; 25.00;100.00; 40.00;400.00; 50.00;
		DELAY_TIMES=20.00; 0.000;150.00; 0.000;400.00; 0.000;
		INCLINATION_ANGLE=0.00
		PRESSURE=1013.20
		TEMPERATURE=20.00
		NORM_TEMPERATURE=20.00
		CORRECTION_FACTOR=1.0000
		EXPECTED_MAX_DOSE_RATE=4.00
		BEGIN_DATA
			-74.48		100.88E-03		13.940E+00
			-71.46		101.58E-03		13.938E+00
			-68.44		102.33E-03		13.931E+00
			-65.42		103.71E-03		13.938E+00
			-62.40		104.51E-03		13.927E+00
			-59.38		105.74E-03		13.931E+00
			-56.36		106.07E-03		13.940E+00
			-53.34		107.23E-03		13.938E+00
			-50.32		107.76E-03		13.934E+00
			-47.30		108.99E-03		13.931E+00
			-44.28		109.48E-03		13.933E+00
			-41.26		110.47E-03		13.929E+00
			-38.25		110.96E-03		13.927E+00
			-35.23		111.72E-03		13.929E+00
			-32.21		112.12E-03		13.934E+00
			-29.19		112.95E-03		13.933E+00
			-26.17		113.77E-03		13.924E+00
			-23.15		114.34E-03		13.929E+00
			-20.13		114.68E-03		13.927E+00
			-17.11		114.94E-03		13.929E+00
			-14.09		115.52E-03		13.884E+00
			-11.07		115.68E-03		13.927E+00
			-8.05		115.99E-03		13.934E+00
			-5.03		116.36E-03		13.927E+00
			-2.01		116.33E-03		13.929E+00
			0.00		116.04E-03		13.927E+00
			2.01		116.45E-03		13.929E+00
			5.03		116.56E-03		13.924E+00
			8.05		115.91E-03		13.929E+00
			11.07		115.52E-03		13.929E+00
			14.09		115.61E-03		13.927E+00
			17.11		115.66E-03		13.916E+00
			20.13		115.58E-03		13.924E+00
			23.15		114.95E-03		13.918E+00
			26.17		114.13E-03		13.925E+00
			29.19		113.45E-03		13.922E+00
			32.21		113.07E-03		13.924E+00
			35.23		112.15E-03		13.931E+00
			38.25		111.61E-03		13.925E+00
			41.26		110.71E-03		13.918E+00
			44.28		110.06E-03		13.920E+00
			47.30		109.54E-03		13.924E+00
			50.32		108.73E-03		13.916E+00
			53.34		107.80E-03		13.922E+00
			56.36		106.62E-03		13.924E+00
			59.38		105.84E-03		13.925E+00
			62.40		104.95E-03		13.924E+00
			65.42		104.09E-03		13.916E+00
			68.44		103.32E-03		13.915E+00
			71.46		102.42E-03		13.918E+00
			74.48		101.50E-03		13.922E+00
			77.50		100.49E-03		13.916E+00
			80.52		99.522E-03		13.920E+00
			83.54		98.370E-03		13.915E+00
			86.56		97.480E-03		13.927E+00
			89.57		96.574E-03		13.922E+00
			92.59		95.796E-03		13.915E+00
			95.61		95.006E-03		13.915E+00
			98.63		93.726E-03		13.915E+00
			101.65		92.964E-03		13.918E+00
			104.67		92.046E-03		13.918E+00
			107.69		90.820E-03		13.922E+00
			110.71		89.849E-03		13.920E+00
			113.73		89.070E-03		13.916E+00
			116.75		88.124E-03		13.915E+00
			119.77		87.246E-03		13.916E+00
			122.79		86.428E-03		13.913E+00
			125.81		85.411E-03		13.918E+00
			128.83		84.676E-03		13.920E+00
			131.85		84.097E-03		13.911E+00
			134.87		83.105E-03		13.915E+00
			137.88		82.068E-03		13.913E+00
			140.90		81.408E-03		13.913E+00
			143.92		80.507E-03		13.907E+00
			146.94		79.638E-03		13.915E+00
			149.96		78.867E-03		13.918E+00
			152.98		77.827E-03		13.915E+00
			156.00		77.174E-03		13.911E+00
			159.02		76.462E-03		13.911E+00
			162.04		75.498E-03		13.915E+00
			165.06		74.602E-03		13.913E+00
			168.08		73.713E-03		13.915E+00
			171.10		73.124E-03		13.911E+00
			174.12		72.736E-03		13.911E+00
			177.14		72.288E-03		13.907E+00
			180.16		71.347E-03		13.909E+00
			183.18		70.730E-03		13.911E+00
			186.19		69.501E-03		13.911E+00
			189.21		68.841E-03		13.906E+00
			192.23		67.706E-03		13.907E+00
			195.25		67.016E-03		13.911E+00
			198.27		66.059E-03		13.916E+00
			201.29		65.584E-03		13.907E+00
			204.31		64.846E-03		13.907E+00
			207.33		64.246E-03		13.906E+00
			210.35		63.507E-03		13.900E+00
			213.37		62.602E-03		13.906E+00
			216.39		61.727E-03		13.907E+00
			219.41		61.348E-03		13.911E+00
			222.43		60.683E-03		13.909E+00
			225.45		59.547E-03		13.906E+00
			228.47		58.946E-03		13.904E+00
			231.49		58.097E-03		13.906E+00
			234.50		57.616E-03		13.909E+00
			237.52		56.816E-03		13.906E+00
			240.54		56.163E-03		13.904E+00
			243.56		55.459E-03		13.898E+00
			246.58		54.685E-03		13.907E+00
			249.60		53.876E-03		13.909E+00
			252.62		53.203E-03		13.909E+00
			255.64		52.563E-03		13.904E+00
			258.66		52.039E-03		13.902E+00
			261.68		51.204E-03		13.904E+00
			264.70		50.343E-03		13.906E+00
			267.72		49.663E-03		13.907E+00
			268.72		49.288E-03		13.904E+00
			269.73		49.229E-03		13.898E+00
			270.74		49.036E-03		13.909E+00
			271.74		48.537E-03		13.904E+00
			272.75		48.317E-03		13.904E+00
			273.76		47.980E-03		13.900E+00
			274.76		47.405E-03		13.909E+00
			275.77		47.074E-03		13.904E+00
			276.78		46.510E-03		13.902E+00
			277.78		45.973E-03		13.900E+00
			278.79		45.237E-03		13.907E+00
			279.80		44.408E-03		13.907E+00
			280.80		43.318E-03		13.900E+00
			281.81		41.648E-03		13.891E+00
			282.81		39.741E-03		13.897E+00
			283.82		37.157E-03		13.904E+00
			284.83		34.020E-03		13.900E+00
			285.83		30.515E-03		13.904E+00
			286.84		25.706E-03		13.900E+00
			287.85		20.018E-03		13.902E+00
			288.85		15.320E-03		13.900E+00
			289.86		12.294E-03		13.895E+00
			290.87		10.443E-03		13.893E+00
			291.87		9.3535E-03		13.895E+00
			292.88		8.5600E-03		13.900E+00
			293.89		8.0720E-03		13.893E+00
			294.89		7.7192E-03		13.898E+00
			295.90		7.4741E-03		13.897E+00
			296.90		7.2650E-03		13.900E+00
			297.91		7.0171E-03		13.904E+00
			298.92		6.9689E-03		13.897E+00
			299.92		6.7876E-03		13.897E+00
			300.93		6.6822E-03		13.900E+00
			301.94		6.5665E-03		13.898E+00
			302.94		6.5415E-03		13.897E+00
			303.95		6.4224E-03		13.902E+00
			304.96		6.3317E-03		13.902E+00
			305.96		6.2945E-03		13.898E+00
			306.97		6.2435E-03		13.897E+00
			307.98		6.1536E-03		13.895E+00
			308.98		6.0492E-03		13.897E+00
			309.99		6.0469E-03		13.902E+00
			311.00		5.9585E-03		13.897E+00
			312.00		5.9044E-03		13.902E+00
		END_DATA
	END_SCAN  1
END_SCAN_DATA
