BEGIN_SCAN_DATA
	FORMAT=CC-Export V1.9
	FILE_CREATION_DATE=11-Aug-2015 16:03:11
	LAST_MODIFIED=11-Aug-2015 16:03:11
	BEGIN_SCAN   1
		TASK_NAME=tba PDD Profiles
		PROGRAM=BistroMath.exe v2.80 alpha (build 443)
		MEAS_DATE=11-Aug-2015 19:38:51
		LINAC=U15
		MODALITY=X
		ISOCENTER=1435.0
		INPLANE_AXIS=Y
		CROSSPLANE_AXIS=X
		DEPTH_AXIS=Z
		INPLANE_AXIS_DIR=GUN_TARGET
		CROSSPLANE_AXIS_DIR=LEFT_RIGHT
		DEPTH_AXIS_DIR=UP_DOWN
		ENERGY=6.00
		NOMINAL_DMAX=17.00
		SSD=1000.00
		SCD=494.00
		BLOCK=0
		WEDGE_ANGLE=0.00
		FIELD_INPLANE=100.00
		FIELD_CROSSPLANE=100.00
		FIELD_TYPE=RECTANGULAR
		GANTRY=0.00
		GANTRY_UPRIGHT_POSITION=0.00
		GANTRY_ROTATION=CW
		COLL_ANGLE=0.00
		COLL_OFFSET_INPLANE=0.00
		COLL_OFFSET_CROSSPLANE=0.00
		RANGE_FIELD=AUTO
		RANGE_REFERENCE=AUTO
		DETECTOR=THIMBLE_CHAMBER
		DETECTOR_SUBCODE=FLEX
		DETECTOR_RADIUS=3.00
		DETECTOR_SN=0
		DETECTOR_CALIBRATION=1.00
		DETECTOR_IS_CALIBRATED=0
		DETECTOR_HV=300.00
		DETECTOR_REFERENCE=THIMBLE_CHAMBER
		DETECTOR_REFERENCE_SUBCODE=FLEX
		DETECTOR_REFERENCE_RADIUS=3.00
		DETECTOR_REFERENCE_SN=0
		DETECTOR_REFERENCE_CALIBRATION=1.00
		DETECTOR_REFERENCE_IS_CALIBRATED=0
		DETECTOR_REFERENCE_HV=300.00
		REF_FIELD_DEPTH=100.00
		REF_FIELD_DEFINED=ISOCENTER
		REF_FIELD_INPLANE=100.00
		REF_FIELD_CROSSPLANE=100.00
		REF_OVERSCAN_FACTOR=1.00
		MEAS_PRESET=REFERENCE_DOSEMETER
		PRESSURE=1013.25
		TEMPERATURE=22.00
		NORM_TEMPERATURE=22.00
		CORRECTION_FACTOR=1.00
		EXPECTED_MAX_DOSE_RATE=6.00
		GUID={BAD91BB1-133D-4a50-8F3D-2DCE43AA789C}
		DRAG_AND_DROP_STATUS=0
		SCAN_CURVETYPE=PDD
		SCAN_DEPTH=0.00
		SCAN_OFFAXIS_INPLANE=0.00
		SCAN_OFFAXIS_CROSSPLANE=0.00
		SCAN_ANGLE=0.00
		SCAN_DIAGONAL=NOT_DIAGONAL
		SCAN_DIRECTION=POSITIVE
		SCAN_COLOR=0
		MEAS_MEDIUM=water
		MEAS_TIME=0.00
		MEAS_UNIT=Relative dose
		DELAY_TIMES=20.00;0.00;150.00;0.00;400.00;0.00;20.00;0.00;150.00;0.00;400.00;0.00;20.00;0.00;150.00;0.00;400.00;0.00;10.00;0.50;150.00;0.00;270.00;0.00;10.00;0.50;150.00;0.00;270.00;0.00;10.00;0.50;150.00;0.00;270.00;0.00;10.00;0.50;150.00;0.00;270.00;0.00;20.00;0.00;150.00;0.00;400.00;0.00;10.00;0.50;150.00;0.00;270.00;0.00;10.00;0.50;150.00;0.00;270.00;0.00;10.00;0.50;150.00;0.00;270.00;0.00;20.00;0.00;150.00;0.00;400.00;0.00;20.00;0.00;150.00;0.00;400.00;0.00;20.00;0.00;150.00;0.00;400.00;0.00;10.00;0.50;150.00;0.00;270.00;0.00;10.00;0.50;150.00;0.00;270.00;0.00;10.00;0.50;150.00;0.00;270.00;0.00;10.00;0.50;150.00;0.00;270.00;0.00;20.00;0.00;150.00;0.00;400.00;0.00;10.00;0.50;150.00;0.00;270.00;0.00;10.00;0.50;150.00;0.00;270.00;0.00;10.00;0.50;150.00;0.00;270.00;0.00;20.00;0.00;150.00;0.00;400.00;0.00;20.00;0.00;150.00;0.00;400.00;0.00;20.00;0.00;150.00;0.00;400.00;0.00;10.00;0.50;150.00;0.00;270.00;0.00;10.00;0.50;150.00;0.00;270.00;0.00;10.00;0.50;150.00;0.00;270.00;0.00;10.00;0.50;150.00;0.00;270.00;0.00;20.00;0.00;150.00;0.00;400.00;0.00;10.00;0.50;150.00;0.00;270.00;0.00;10.00;0.50;150.00;0.00;270.00;0.00;10.00;0.50;150.00;0.00;270.00;0.00;20.00;0.00;150.00;0.00;400.00;0.00;20.00;0.00;150.00;0.00;400.00;0.00;20.00;0.00;150.00;0.00;400.00;0.00;10.00;0.50;150.00;0.00;270.00;0.00;10.00;0.50;150.00;0.00;270.00;0.00;10.00;0.50;150.00;0.00;270.00;0.00;10.00;0.50;150.00;0.00;270.00;0.00;20.00;0.00;150.00;0.00;400.00;0.00;10.00;0.50;150.00;0.00;270.00;0.00;10.00;0.50;150.00;0.00;270.00;0.00;10.00;0.50;150.00;0.00;270.00;0.00;
		BEGIN_DATA
			-0.50		5.7670E+001	10.000E+00
			0.11		5.9523E+001	10.000E+00
			0.62		6.2693E+001	10.000E+00
			1.14		6.7174E+001	10.000E+00
			1.65		7.2999E+001	10.000E+00
			2.16		7.8156E+001	10.000E+00
			2.67		8.3241E+001	10.000E+00
			3.19		8.8511E+001	10.000E+00
			3.70		9.2089E+001	10.000E+00
			4.20		9.5779E+001	10.000E+00
			4.70		9.8814E+001	10.000E+00
			5.19		1.0133E+002	10.000E+00
			5.70		1.0348E+002	10.000E+00
			6.23		1.0530E+002	10.000E+00
			6.74		1.0694E+002	10.000E+00
			7.24		1.0824E+002	10.000E+00
			7.75		1.1015E+002	10.000E+00
			8.26		1.1121E+002	10.000E+00
			8.76		1.1244E+002	10.000E+00
			9.26		1.1291E+002	10.000E+00
			9.77		1.1359E+002	10.000E+00
			10.27		1.1409E+002	10.000E+00
			10.78		1.1445E+002	10.000E+00
			11.29		1.1498E+002	10.000E+00
			11.80		1.1528E+002	10.000E+00
			12.30		1.1553E+002	10.000E+00
			12.82		1.1581E+002	10.000E+00
			13.32		1.1592E+002	10.000E+00
			13.82		1.1579E+002	10.000E+00
			14.35		1.1617E+002	10.000E+00
			14.86		1.1596E+002	10.000E+00
			15.37		1.1576E+002	10.000E+00
			15.88		1.1565E+002	10.000E+00
			16.40		1.1588E+002	10.000E+00
			16.92		1.1563E+002	10.000E+00
			17.42		1.1560E+002	10.000E+00
			17.94		1.1502E+002	10.000E+00
			18.47		1.1516E+002	10.000E+00
			18.97		1.1533E+002	10.000E+00
			19.47		1.1476E+002	10.000E+00
			19.96		1.1473E+002	10.000E+00
			20.48		1.1445E+002	10.000E+00
			21.00		1.1412E+002	10.000E+00
			21.51		1.1374E+002	10.000E+00
			22.02		1.1387E+002	10.000E+00
			22.54		1.1334E+002	10.000E+00
			23.04		1.1329E+002	10.000E+00
			23.56		1.1297E+002	10.000E+00
			24.05		1.1275E+002	10.000E+00
			24.55		1.1244E+002	10.000E+00
			25.07		1.1215E+002	10.000E+00
			25.58		1.1212E+002	10.000E+00
			26.08		1.1165E+002	10.000E+00
			26.57		1.1149E+002	10.000E+00
			27.07		1.1114E+002	10.000E+00
			27.57		1.1120E+002	10.000E+00
			28.08		1.1080E+002	10.000E+00
			28.61		1.1036E+002	10.000E+00
			29.12		1.0997E+002	10.000E+00
			29.62		1.1004E+002	10.000E+00
			30.13		1.0989E+002	10.000E+00
			30.65		1.0948E+002	10.000E+00
			31.17		1.0910E+002	10.000E+00
			31.67		1.0923E+002	10.000E+00
			32.15		1.0878E+002	10.000E+00
			32.66		1.0841E+002	10.000E+00
			33.19		1.0832E+002	10.000E+00
			33.69		1.0792E+002	10.000E+00
			34.19		1.0799E+002	10.000E+00
			34.70		1.0768E+002	10.000E+00
			35.19		1.0733E+002	10.000E+00
			35.69		1.0669E+002	10.000E+00
			36.22		1.0673E+002	10.000E+00
			36.72		1.0671E+002	10.000E+00
			37.23		1.0647E+002	10.000E+00
			37.75		1.0645E+002	10.000E+00
			38.26		1.0558E+002	10.000E+00
			38.78		1.0581E+002	10.000E+00
			39.27		1.0527E+002	10.000E+00
			39.77		1.0525E+002	10.000E+00
			40.30		1.0484E+002	10.000E+00
			40.81		1.0463E+002	10.000E+00
			41.30		1.0438E+002	10.000E+00
			41.80		1.0409E+002	10.000E+00
			42.29		1.0385E+002	10.000E+00
			42.79		1.0365E+002	10.000E+00
			43.31		1.0338E+002	10.000E+00
			43.83		1.0300E+002	10.000E+00
			44.34		1.0289E+002	10.000E+00
			44.85		1.0256E+002	10.000E+00
			45.35		1.0240E+002	10.000E+00
			45.86		1.0218E+002	10.000E+00
			46.37		1.0178E+002	10.000E+00
			46.88		1.0159E+002	10.000E+00
			47.37		1.0134E+002	10.000E+00
			47.86		1.0129E+002	10.000E+00
			48.40		1.0097E+002	10.000E+00
			48.92		1.0073E+002	10.000E+00
			49.42		1.0042E+002	10.000E+00
			49.92		1.0002E+002	10.000E+00
			50.40		9.9959E+001	10.000E+00
			50.91		9.9525E+001	10.000E+00
			51.42		9.9468E+001	10.000E+00
			51.91		9.9242E+001	10.000E+00
			52.45		9.9259E+001	10.000E+00
			52.96		9.8728E+001	10.000E+00
			53.44		9.8720E+001	10.000E+00
			53.94		9.8650E+001	10.000E+00
			54.45		9.8138E+001	10.000E+00
			54.95		9.7978E+001	10.000E+00
			55.46		9.7357E+001	10.000E+00
			55.98		9.7159E+001	10.000E+00
			56.49		9.7018E+001	10.000E+00
			57.00		9.6858E+001	10.000E+00
			57.51		9.6570E+001	10.000E+00
			58.01		9.6550E+001	10.000E+00
			58.54		9.5980E+001	10.000E+00
			59.04		9.5914E+001	10.000E+00
			59.55		9.5659E+001	10.000E+00
			60.07		9.5463E+001	10.000E+00
			60.57		9.5140E+001	10.000E+00
			61.08		9.5078E+001	10.000E+00
			61.60		9.4659E+001	10.000E+00
			62.11		9.4478E+001	10.000E+00
			62.61		9.4031E+001	10.000E+00
			63.12		9.4213E+001	10.000E+00
			63.61		9.4062E+001	10.000E+00
			64.10		9.3512E+001	10.000E+00
			64.61		9.3268E+001	10.000E+00
			65.12		9.2832E+001	10.000E+00
			65.62		9.2907E+001	10.000E+00
			66.16		9.2693E+001	10.000E+00
			66.67		9.2436E+001	10.000E+00
			67.17		9.1942E+001	10.000E+00
			67.68		9.1930E+001	10.000E+00
			68.18		9.1782E+001	10.000E+00
			68.67		9.1462E+001	10.000E+00
			69.18		9.1219E+001	10.000E+00
			69.69		9.0895E+001	10.000E+00
			70.18		9.0765E+001	10.000E+00
			70.69		9.0563E+001	10.000E+00
			71.21		9.0405E+001	10.000E+00
			71.72		9.0114E+001	10.000E+00
			72.23		8.9761E+001	10.000E+00
			72.75		8.9728E+001	10.000E+00
			73.26		8.9319E+001	10.000E+00
			73.77		8.9221E+001	10.000E+00
			74.28		8.8851E+001	10.000E+00
			74.78		8.8572E+001	10.000E+00
			75.28		8.8375E+001	10.000E+00
			75.79		8.8073E+001	10.000E+00
			76.32		8.7958E+001	10.000E+00
			76.83		8.7998E+001	10.000E+00
			77.32		8.7760E+001	10.000E+00
			77.81		8.7174E+001	10.000E+00
			78.31		8.7008E+001	10.000E+00
			78.83		8.6761E+001	10.000E+00
			79.36		8.6663E+001	10.000E+00
			79.85		8.6361E+001	10.000E+00
			80.34		8.6183E+001	10.000E+00
			80.84		8.5797E+001	10.000E+00
			81.36		8.5872E+001	10.000E+00
			81.86		8.5454E+001	10.000E+00
			82.38		8.5415E+001	10.000E+00
			82.89		8.5017E+001	10.000E+00
			83.38		8.5042E+001	10.000E+00
			83.91		8.4788E+001	10.000E+00
			84.42		8.4664E+001	10.000E+00
			84.93		8.4258E+001	10.000E+00
			85.44		8.3915E+001	10.000E+00
			85.95		8.3855E+001	10.000E+00
			86.47		8.3739E+001	10.000E+00
			86.97		8.3242E+001	10.000E+00
			87.47		8.3332E+001	10.000E+00
			87.98		8.2925E+001	10.000E+00
			88.49		8.2625E+001	10.000E+00
			89.01		8.2538E+001	10.000E+00
			89.51		8.2332E+001	10.000E+00
			90.02		8.2069E+001	10.000E+00
			90.54		8.1855E+001	10.000E+00
			91.04		8.1518E+001	10.000E+00
			91.55		8.1323E+001	10.000E+00
			92.06		8.1028E+001	10.000E+00
			92.57		8.0936E+001	10.000E+00
			93.07		8.0890E+001	10.000E+00
			93.55		8.0568E+001	10.000E+00
			94.06		8.0318E+001	10.000E+00
			94.60		8.0067E+001	10.000E+00
			95.11		7.9736E+001	10.000E+00
			95.59		7.9774E+001	10.000E+00
			96.09		7.9606E+001	10.000E+00
			96.61		7.9238E+001	10.000E+00
			97.12		7.8905E+001	10.000E+00
			97.62		7.8942E+001	10.000E+00
			98.13		7.8913E+001	10.000E+00
			98.62		7.8438E+001	10.000E+00
			99.13		7.8165E+001	10.000E+00
			99.66		7.7845E+001	10.000E+00
			100.17		7.7990E+001	10.000E+00
			100.67		7.7546E+001	10.000E+00
			101.17		7.7456E+001	10.000E+00
			101.66		7.7273E+001	10.000E+00
			102.17		7.6839E+001	10.000E+00
			102.69		7.6728E+001	10.000E+00
			103.20		7.6537E+001	10.000E+00
			103.69		7.6315E+001	10.000E+00
			104.20		7.6282E+001	10.000E+00
			104.73		7.5954E+001	10.000E+00
			105.25		7.5880E+001	10.000E+00
			105.74		7.5628E+001	10.000E+00
			106.26		7.5532E+001	10.000E+00
			106.77		7.5107E+001	10.000E+00
			107.28		7.5053E+001	10.000E+00
			107.80		7.4494E+001	10.000E+00
			108.31		7.4662E+001	10.000E+00
			108.81		7.4569E+001	10.000E+00
			109.32		7.4107E+001	10.000E+00
			109.82		7.4089E+001	10.000E+00
			110.30		7.3391E+001	10.000E+00
			110.80		7.3665E+001	10.000E+00
			111.32		7.3368E+001	10.000E+00
			111.84		7.3208E+001	10.000E+00
			112.37		7.2952E+001	10.000E+00
			112.90		7.2889E+001	10.000E+00
			113.44		7.2571E+001	10.000E+00
			113.96		7.2636E+001	10.000E+00
			114.44		7.2181E+001	10.000E+00
			114.89		7.1907E+001	10.000E+00
			115.28		7.2066E+001	10.000E+00
			115.73		7.1667E+001	10.000E+00
			116.19		7.1635E+001	10.000E+00
			116.72		7.1333E+001	10.000E+00
			117.28		7.1030E+001	10.000E+00
			117.89		7.0886E+001	10.000E+00
			118.59		7.0466E+001	10.000E+00
			119.49		7.0316E+001	10.000E+00
			120.00		7.0022E+001	10.000E+00
			120.92		7.0356E+001	10.000E+00
			121.42		7.0032E+001	10.000E+00
			121.92		6.8908E+001	10.000E+00
			122.42		6.9646E+001	10.000E+00
			122.93		6.9060E+001	10.000E+00
			123.44		6.9038E+001	10.000E+00
			123.96		6.8965E+001	10.000E+00
			124.48		6.8825E+001	10.000E+00
			124.99		6.8162E+001	10.000E+00
			125.49		6.8053E+001	10.000E+00
			125.97		6.7834E+001	10.000E+00
			126.47		6.7768E+001	10.000E+00
			126.99		6.7479E+001	10.000E+00
			127.50		6.7569E+001	10.000E+00
			128.01		6.7263E+001	10.000E+00
			128.51		6.7215E+001	10.000E+00
			129.02		6.7263E+001	10.000E+00
			129.52		6.6488E+001	10.000E+00
			130.03		6.6559E+001	10.000E+00
			130.55		6.6139E+001	10.000E+00
			131.05		6.5890E+001	10.000E+00
			131.53		6.5946E+001	10.000E+00
			132.04		6.5805E+001	10.000E+00
			132.55		6.5215E+001	10.000E+00
			133.05		6.5641E+001	10.000E+00
			133.58		6.5229E+001	10.000E+00
			134.09		6.5069E+001	10.000E+00
			134.57		6.5209E+001	10.000E+00
			135.06		6.5173E+001	10.000E+00
			135.57		6.4203E+001	10.000E+00
			136.07		6.4699E+001	10.000E+00
			136.61		6.4383E+001	10.000E+00
			137.12		6.4152E+001	10.000E+00
			137.61		6.3607E+001	10.000E+00
			138.12		6.3488E+001	10.000E+00
			138.62		6.3653E+001	10.000E+00
			139.13		6.3276E+001	10.000E+00
			139.62		6.3649E+001	10.000E+00
			140.11		6.3012E+001	10.000E+00
			140.60		6.2823E+001	10.000E+00
			141.11		6.2627E+001	10.000E+00
			141.62		6.2744E+001	10.000E+00
			142.14		6.2315E+001	10.000E+00
			142.65		6.1821E+001	10.000E+00
			143.16		6.2156E+001	10.000E+00
			143.66		6.1857E+001	10.000E+00
			144.16		6.1621E+001	10.000E+00
			144.67		6.1511E+001	10.000E+00
			145.19		6.1385E+001	10.000E+00
			145.68		6.1170E+001	10.000E+00
			146.18		6.1092E+001	10.000E+00
			146.68		6.0875E+001	10.000E+00
			147.17		6.1054E+001	10.000E+00
			147.68		6.0573E+001	10.000E+00
			148.20		6.0239E+001	10.000E+00
			148.72		6.0212E+001	10.000E+00
			149.24		6.0440E+001	10.000E+00
			149.73		5.9722E+001	10.000E+00
			150.23		5.9604E+001	10.000E+00
			150.73		5.9583E+001	10.000E+00
			151.25		5.9508E+001	10.000E+00
			151.76		5.9038E+001	10.000E+00
			152.26		5.9201E+001	10.000E+00
			152.77		5.8675E+001	10.000E+00
			153.28		5.8468E+001	10.000E+00
			153.78		5.8861E+001	10.000E+00
			154.27		5.8162E+001	10.000E+00
			154.77		5.8492E+001	10.000E+00
			155.29		5.7902E+001	10.000E+00
			155.80		5.7838E+001	10.000E+00
			156.31		5.8224E+001	10.000E+00
			156.81		5.7311E+001	10.000E+00
			157.32		5.7351E+001	10.000E+00
			157.81		5.7392E+001	10.000E+00
			158.33		5.7156E+001	10.000E+00
			158.84		5.6813E+001	10.000E+00
			159.36		5.7062E+001	10.000E+00
			159.85		5.6409E+001	10.000E+00
			160.35		5.6420E+001	10.000E+00
			160.87		5.6814E+001	10.000E+00
			161.37		5.6085E+001	10.000E+00
			161.86		5.6499E+001	10.000E+00
			162.37		5.5925E+001	10.000E+00
			162.88		5.5517E+001	10.000E+00
			163.38		5.6182E+001	10.000E+00
			163.90		5.5402E+001	10.000E+00
			164.41		5.5384E+001	10.000E+00
			164.91		5.5022E+001	10.000E+00
			165.41		5.5180E+001	10.000E+00
			165.92		5.4602E+001	10.000E+00
			166.42		5.4556E+001	10.000E+00
			166.93		5.4708E+001	10.000E+00
			167.43		5.4575E+001	10.000E+00
			167.93		5.4062E+001	10.000E+00
			168.42		5.4100E+001	10.000E+00
			168.93		5.4009E+001	10.000E+00
			169.43		5.3633E+001	10.000E+00
			169.95		5.3374E+001	10.000E+00
			170.47		5.3417E+001	10.000E+00
			170.98		5.3868E+001	10.000E+00
			171.49		5.3254E+001	10.000E+00
			171.99		5.3414E+001	10.000E+00
			172.50		5.3112E+001	10.000E+00
			173.00		5.2691E+001	10.000E+00
			173.50		5.2542E+001	10.000E+00
			174.00		5.2349E+001	10.000E+00
			174.51		5.2279E+001	10.000E+00
			175.03		5.2450E+001	10.000E+00
			175.53		5.2073E+001	10.000E+00
			176.03		5.2419E+001	10.000E+00
			176.52		5.1682E+001	10.000E+00
			177.03		5.1792E+001	10.000E+00
			177.55		5.1428E+001	10.000E+00
			178.07		5.1424E+001	10.000E+00
			178.57		5.0835E+001	10.000E+00
			179.09		5.0964E+001	10.000E+00
			179.61		5.0973E+001	10.000E+00
			180.12		5.1230E+001	10.000E+00
			180.64		5.0581E+001	10.000E+00
			181.15		5.0396E+001	10.000E+00
			181.66		5.0458E+001	10.000E+00
			182.15		5.0222E+001	10.000E+00
			182.66		5.0064E+001	10.000E+00
			183.18		5.0043E+001	10.000E+00
			183.69		5.0161E+001	10.000E+00
			184.20		5.0021E+001	10.000E+00
			184.69		4.9564E+001	10.000E+00
			185.20		4.9788E+001	10.000E+00
			185.70		4.9456E+001	10.000E+00
			186.21		4.9322E+001	10.000E+00
			186.72		4.9094E+001	10.000E+00
			187.22		4.8972E+001	10.000E+00
			187.73		4.8376E+001	10.000E+00
			188.24		4.8433E+001	10.000E+00
			188.76		4.8622E+001	10.000E+00
			189.27		4.8348E+001	10.000E+00
			189.76		4.8233E+001	10.000E+00
			190.26		4.8217E+001	10.000E+00
			190.75		4.7862E+001	10.000E+00
			191.26		4.7613E+001	10.000E+00
			191.78		4.7731E+001	10.000E+00
			192.28		4.7872E+001	10.000E+00
			192.78		4.7627E+001	10.000E+00
			193.31		4.7074E+001	10.000E+00
			193.81		4.7593E+001	10.000E+00
			194.31		4.7268E+001	10.000E+00
			194.81		4.7107E+001	10.000E+00
			195.32		4.6816E+001	10.000E+00
			195.83		4.6554E+001	10.000E+00
			196.34		4.6673E+001	10.000E+00
			196.84		4.6323E+001	10.000E+00
			197.35		4.6558E+001	10.000E+00
			197.85		4.6268E+001	10.000E+00
			198.36		4.6039E+001	10.000E+00
			198.87		4.5820E+001	10.000E+00
			199.38		4.6036E+001	10.000E+00
			199.89		4.5769E+001	10.000E+00
			200.41		4.5914E+001	10.000E+00
			200.92		4.5335E+001	10.000E+00
			201.43		4.5200E+001	10.000E+00
			201.94		4.5264E+001	10.000E+00
			202.45		4.5177E+001	10.000E+00
			202.97		4.4849E+001	10.000E+00
			203.48		4.4747E+001	10.000E+00
			203.98		4.4724E+001	10.000E+00
			204.48		4.4744E+001	10.000E+00
			204.98		4.4435E+001	10.000E+00
			205.49		4.4502E+001	10.000E+00
			206.01		4.4191E+001	10.000E+00
			206.52		4.4587E+001	10.000E+00
			207.02		4.3606E+001	10.000E+00
			207.54		4.3951E+001	10.000E+00
			208.04		4.3971E+001	10.000E+00
			208.53		4.3644E+001	10.000E+00
			209.04		4.3332E+001	10.000E+00
			209.56		4.3313E+001	10.000E+00
			210.06		4.3267E+001	10.000E+00
			210.55		4.3314E+001	10.000E+00
			211.06		4.3050E+001	10.000E+00
			211.58		4.2858E+001	10.000E+00
			212.10		4.2730E+001	10.000E+00
			212.61		4.2787E+001	10.000E+00
			213.11		4.2478E+001	10.000E+00
			213.62		4.2302E+001	10.000E+00
			214.11		4.2384E+001	10.000E+00
			214.62		4.2230E+001	10.000E+00
			215.14		4.2037E+001	10.000E+00
			215.65		4.1916E+001	10.000E+00
			216.17		4.1980E+001	10.000E+00
			216.66		4.1950E+001	10.000E+00
			217.15		4.1395E+001	10.000E+00
			217.66		4.1522E+001	10.000E+00
			218.16		4.1526E+001	10.000E+00
			218.68		4.1311E+001	10.000E+00
			219.20		4.1180E+001	10.000E+00
			219.71		4.1083E+001	10.000E+00
			220.22		4.1043E+001	10.000E+00
			220.74		4.0974E+001	10.000E+00
			221.24		4.0957E+001	10.000E+00
			221.75		4.0624E+001	10.000E+00
			222.26		4.0549E+001	10.000E+00
			222.75		4.0311E+001	10.000E+00
			223.24		4.0278E+001	10.000E+00
			223.75		4.0139E+001	10.000E+00
			224.26		4.0046E+001	10.000E+00
			224.77		4.0041E+001	10.000E+00
			225.28		3.9839E+001	10.000E+00
			225.80		3.9775E+001	10.000E+00
			226.32		3.9381E+001	10.000E+00
			226.81		3.9412E+001	10.000E+00
			227.31		3.9594E+001	10.000E+00
			227.80		3.9182E+001	10.000E+00
			228.30		3.9095E+001	10.000E+00
			228.80		3.9160E+001	10.000E+00
			229.31		3.8898E+001	10.000E+00
			229.82		3.8742E+001	10.000E+00
			230.33		3.8981E+001	10.000E+00
			230.85		3.8613E+001	10.000E+00
			231.35		3.8826E+001	10.000E+00
			231.87		3.8261E+001	10.000E+00
			232.38		3.8333E+001	10.000E+00
			232.88		3.8431E+001	10.000E+00
			233.39		3.7995E+001	10.000E+00
			233.91		3.8075E+001	10.000E+00
			234.41		3.7845E+001	10.000E+00
			234.89		3.7939E+001	10.000E+00
			235.37		3.7602E+001	10.000E+00
			235.88		3.7686E+001	10.000E+00
			236.39		3.7727E+001	10.000E+00
			236.88		3.7398E+001	10.000E+00
			237.39		3.7512E+001	10.000E+00
			237.88		3.7387E+001	10.000E+00
			238.41		3.7420E+001	10.000E+00
			238.89		3.7241E+001	10.000E+00
			239.38		3.6699E+001	10.000E+00
			239.91		3.6880E+001	10.000E+00
			240.43		3.6888E+001	10.000E+00
			240.89		3.6663E+001	10.000E+00
			241.38		3.6368E+001	10.000E+00
			241.91		3.6484E+001	10.000E+00
			242.42		3.6643E+001	10.000E+00
			242.92		3.6481E+001	10.000E+00
			243.43		3.6431E+001	10.000E+00
			243.94		3.6228E+001	10.000E+00
			244.45		3.6306E+001	10.000E+00
			244.97		3.5805E+001	10.000E+00
			245.47		3.5536E+001	10.000E+00
			245.98		3.5631E+001	10.000E+00
			246.48		3.5656E+001	10.000E+00
			246.97		3.5579E+001	10.000E+00
			247.48		3.5349E+001	10.000E+00
			248.00		3.5440E+001	10.000E+00
			248.52		3.5327E+001	10.000E+00
			249.02		3.5040E+001	10.000E+00
			249.53		3.4944E+001	10.000E+00
			250.02		3.4839E+001	10.000E+00
			250.53		3.5037E+001	10.000E+00
			251.03		3.4779E+001	10.000E+00
			251.54		3.4812E+001	10.000E+00
			252.05		3.4688E+001	10.000E+00
			252.56		3.4390E+001	10.000E+00
			253.06		3.4367E+001	10.000E+00
			253.57		3.4320E+001	10.000E+00
			254.10		3.4146E+001	10.000E+00
			254.61		3.4218E+001	10.000E+00
			255.11		3.3850E+001	10.000E+00
			255.62		3.3946E+001	10.000E+00
			256.13		3.3921E+001	10.000E+00
			256.64		3.3920E+001	10.000E+00
			257.15		3.3521E+001	10.000E+00
			257.66		3.3289E+001	10.000E+00
			258.17		3.3494E+001	10.000E+00
			258.68		3.3316E+001	10.000E+00
			259.19		3.3358E+001	10.000E+00
			259.70		3.3270E+001	10.000E+00
			260.23		3.2922E+001	10.000E+00
			260.73		3.2975E+001	10.000E+00
			261.23		3.2864E+001	10.000E+00
			261.74		3.2843E+001	10.000E+00
			262.25		3.2900E+001	10.000E+00
			262.75		3.2495E+001	10.000E+00
			263.27		3.2434E+001	10.000E+00
			263.79		3.2539E+001	10.000E+00
			264.29		3.2406E+001	10.000E+00
			264.80		3.2455E+001	10.000E+00
			265.29		3.2365E+001	10.000E+00
			265.80		3.2278E+001	10.000E+00
			266.32		3.2141E+001	10.000E+00
			266.83		3.1874E+001	10.000E+00
			267.32		3.1968E+001	10.000E+00
			267.80		3.1764E+001	10.000E+00
			268.32		3.1592E+001	10.000E+00
			268.84		3.1465E+001	10.000E+00
			269.35		3.1579E+001	10.000E+00
			269.87		3.1528E+001	10.000E+00
			270.39		3.1134E+001	10.000E+00
			270.89		3.1486E+001	10.000E+00
			271.39		3.1269E+001	10.000E+00
			271.92		3.1326E+001	10.000E+00
			272.44		3.0991E+001	10.000E+00
			272.95		3.0859E+001	10.000E+00
			273.44		3.0595E+001	10.000E+00
			273.92		3.0952E+001	10.000E+00
			274.42		3.0800E+001	10.000E+00
			274.93		3.0683E+001	10.000E+00
			275.44		3.0437E+001	10.000E+00
			275.95		3.0380E+001	10.000E+00
			276.45		3.0335E+001	10.000E+00
			276.96		3.0209E+001	10.000E+00
			277.48		3.0185E+001	10.000E+00
			277.99		2.9980E+001	10.000E+00
			278.51		3.0025E+001	10.000E+00
			279.02		2.9976E+001	10.000E+00
			279.51		2.9803E+001	10.000E+00
			280.01		2.9972E+001	10.000E+00
			280.53		2.9762E+001	10.000E+00
			281.05		2.9788E+001	10.000E+00
			281.56		2.9593E+001	10.000E+00
			282.06		2.9546E+001	10.000E+00
			282.56		2.9591E+001	10.000E+00
			283.06		2.9244E+001	10.000E+00
			283.57		2.9254E+001	10.000E+00
			284.08		2.9198E+001	10.000E+00
			284.59		2.9019E+001	10.000E+00
			285.09		2.9132E+001	10.000E+00
			285.59		2.9025E+001	10.000E+00
			286.08		2.8942E+001	10.000E+00
			286.57		2.8704E+001	10.000E+00
			287.08		2.8820E+001	10.000E+00
			287.59		2.8510E+001	10.000E+00
			288.10		2.8758E+001	10.000E+00
			288.60		2.8432E+001	10.000E+00
			289.13		2.8278E+001	10.000E+00
			289.64		2.8401E+001	10.000E+00
			290.15		2.8145E+001	10.000E+00
			290.67		2.8299E+001	10.000E+00
			291.18		2.8262E+001	10.000E+00
			291.67		2.7950E+001	10.000E+00
			292.18		2.7889E+001	10.000E+00
			292.69		2.7739E+001	10.000E+00
			293.21		2.7899E+001	10.000E+00
			293.72		2.7836E+001	10.000E+00
			294.21		2.7612E+001	10.000E+00
			294.72		2.7571E+001	10.000E+00
			295.24		2.7490E+001	10.000E+00
			295.76		2.7335E+001	10.000E+00
			296.26		2.7329E+001	10.000E+00
			296.77		2.7194E+001	10.000E+00
			297.27		2.7234E+001	10.000E+00
			297.77		2.7294E+001	10.000E+00
			298.28		2.6984E+001	10.000E+00
			298.79		2.6911E+001	10.000E+00
			299.30		2.6944E+001	10.000E+00
			299.80		2.6925E+001	10.000E+00
			300.32		2.6781E+001	10.000E+00
			300.83		2.6674E+001	10.000E+00
			301.34		2.6490E+001	10.000E+00
			301.86		2.6610E+001	10.000E+00
			302.38		2.6550E+001	10.000E+00
			302.89		2.6506E+001	10.000E+00
			303.40		2.6359E+001	10.000E+00
			303.91		2.6375E+001	10.000E+00
			304.43		2.6371E+001	10.000E+00
			304.94		2.6057E+001	10.000E+00
			305.45		2.6173E+001	10.000E+00
			305.96		2.6048E+001	10.000E+00
			306.48		2.5994E+001	10.000E+00
			306.97		2.5860E+001	10.000E+00
			307.48		2.5958E+001	10.000E+00
			307.99		2.5704E+001	10.000E+00
			308.49		2.5614E+001	10.000E+00
			308.99		2.5688E+001	10.000E+00
			309.51		2.5520E+001	10.000E+00
			310.01		2.5408E+001	10.000E+00
			310.51		2.5455E+001	10.000E+00
			311.02		2.5332E+001	10.000E+00
			311.53		2.5260E+001	10.000E+00
			312.04		2.5201E+001	10.000E+00
			312.55		2.5089E+001	10.000E+00
			313.05		2.5221E+001	10.000E+00
			313.55		2.4985E+001	10.000E+00
			314.06		2.4992E+001	10.000E+00
			314.57		2.4817E+001	10.000E+00
			315.06		2.4829E+001	10.000E+00
			315.56		2.4672E+001	10.000E+00
			316.07		2.4765E+001	10.000E+00
			316.59		2.4754E+001	10.000E+00
			317.12		2.4651E+001	10.000E+00
			317.61		2.4531E+001	10.000E+00
			318.11		2.4405E+001	10.000E+00
			318.63		2.4337E+001	10.000E+00
			319.13		2.4314E+001	10.000E+00
			319.63		2.4270E+001	10.000E+00
			320.14		2.4115E+001	10.000E+00
			320.64		2.4098E+001	10.000E+00
			321.13		2.4104E+001	10.000E+00
			321.63		2.3851E+001	10.000E+00
			322.14		2.3952E+001	10.000E+00
			322.67		2.3899E+001	10.000E+00
			323.20		2.3733E+001	10.000E+00
			323.71		2.3909E+001	10.000E+00
			324.20		2.3659E+001	10.000E+00
			324.69		2.3525E+001	10.000E+00
			325.21		2.3542E+001	10.000E+00
			325.74		2.3541E+001	10.000E+00
			326.25		2.3416E+001	10.000E+00
			326.76		2.3177E+001	10.000E+00
			327.26		2.3225E+001	10.000E+00
			327.76		2.3244E+001	10.000E+00
			328.27		2.3155E+001	10.000E+00
			328.79		2.3292E+001	10.000E+00
			329.30		2.3050E+001	10.000E+00
			329.79		2.3152E+001	10.000E+00
			330.29		2.2880E+001	10.000E+00
			330.80		2.2838E+001	10.000E+00
			331.32		2.2720E+001	10.000E+00
			331.84		2.2714E+001	10.000E+00
			332.34		2.2659E+001	10.000E+00
			332.83		2.2441E+001	10.000E+00
			333.33		2.2411E+001	10.000E+00
			333.83		2.2413E+001	10.000E+00
			334.33		2.2351E+001	10.000E+00
			334.85		2.2340E+001	10.000E+00
			335.36		2.2158E+001	10.000E+00
			335.87		2.2055E+001	10.000E+00
			336.37		2.2134E+001	10.000E+00
			336.86		2.2159E+001	10.000E+00
			337.37		2.2050E+001	10.000E+00
			337.88		2.2008E+001	10.000E+00
			338.39		2.2018E+001	10.000E+00
			338.91		2.1627E+001	10.000E+00
			339.41		2.1825E+001	10.000E+00
			339.90		2.1689E+001	10.000E+00
			340.39		2.1763E+001	10.000E+00
			340.90		2.1730E+001	10.000E+00
			341.41		2.1746E+001	10.000E+00
			341.92		2.1647E+001	10.000E+00
			342.43		2.1606E+001	10.000E+00
			342.93		2.1470E+001	10.000E+00
			343.42		2.1365E+001	10.000E+00
			343.92		2.1371E+001	10.000E+00
			344.43		2.1318E+001	10.000E+00
			344.93		2.1166E+001	10.000E+00
			345.44		2.1106E+001	10.000E+00
			345.94		2.1133E+001	10.000E+00
			346.44		2.1056E+001	10.000E+00
			346.96		2.0946E+001	10.000E+00
			347.47		2.0969E+001	10.000E+00
			347.98		2.0841E+001	10.000E+00
			348.48		2.1001E+001	10.000E+00
			348.99		2.0708E+001	10.000E+00
			349.49		2.0712E+001	10.000E+00
			350.00		2.0609E+001	10.000E+00
			350.52		2.0494E+001	10.000E+00
			351.03		2.0677E+001	10.000E+00
			351.54		2.0613E+001	10.000E+00
			352.03		2.0443E+001	10.000E+00
			352.52		2.0345E+001	10.000E+00
			353.02		2.0401E+001	10.000E+00
			353.53		2.0321E+001	10.000E+00
			354.04		2.0238E+001	10.000E+00
			354.54		2.0239E+001	10.000E+00
			355.04		2.0162E+001	10.000E+00
			355.56		2.0014E+001	10.000E+00
			356.06		1.9990E+001	10.000E+00
			356.55		2.0105E+001	10.000E+00
			357.07		1.9922E+001	10.000E+00
			357.57		1.9908E+001	10.000E+00
			358.06		1.9958E+001	10.000E+00
			358.57		1.9764E+001	10.000E+00
			359.09		1.9621E+001	10.000E+00
			359.60		1.9784E+001	10.000E+00
			360.11		1.9576E+001	10.000E+00
			360.62		1.9593E+001	10.000E+00
			361.13		1.9468E+001	10.000E+00
			361.65		1.9500E+001	10.000E+00
			362.17		1.9414E+001	10.000E+00
			362.68		1.9303E+001	10.000E+00
			363.19		1.9278E+001	10.000E+00
			363.69		1.9302E+001	10.000E+00
			364.20		1.9217E+001	10.000E+00
			364.70		1.9078E+001	10.000E+00
			365.21		1.9056E+001	10.000E+00
			365.70		1.9027E+001	10.000E+00
			366.20		1.9060E+001	10.000E+00
			366.72		1.8879E+001	10.000E+00
			367.22		1.8909E+001	10.000E+00
			367.75		1.8922E+001	10.000E+00
			368.25		1.8830E+001	10.000E+00
			368.75		1.8730E+001	10.000E+00
			369.25		1.8741E+001	10.000E+00
			369.77		1.8690E+001	10.000E+00
			370.28		1.8700E+001	10.000E+00
			370.79		1.8590E+001	10.000E+00
			371.30		1.8620E+001	10.000E+00
			371.81		1.8464E+001	10.000E+00
			372.33		1.8362E+001	10.000E+00
			372.83		1.8319E+001	10.000E+00
			373.34		1.8483E+001	10.000E+00
			373.86		1.8329E+001	10.000E+00
			374.37		1.8265E+001	10.000E+00
			374.87		1.8216E+001	10.000E+00
			375.38		1.8071E+001	10.000E+00
			375.90		1.8026E+001	10.000E+00
			376.40		1.8037E+001	10.000E+00
			376.91		1.7906E+001	10.000E+00
			377.41		1.7998E+001	10.000E+00
			377.91		1.7842E+001	10.000E+00
			378.41		1.7897E+001	10.000E+00
			378.93		1.7727E+001	10.000E+00
			379.44		1.7793E+001	10.000E+00
			379.94		1.7817E+001	10.000E+00
			380.45		1.7660E+001	10.000E+00
			380.95		1.7608E+001	10.000E+00
			381.47		1.7618E+001	10.000E+00
			381.98		1.7590E+001	10.000E+00
			382.49		1.7516E+001	10.000E+00
			383.00		1.7381E+001	10.000E+00
			383.51		1.7460E+001	10.000E+00
			384.01		1.7277E+001	10.000E+00
			384.51		1.7471E+001	10.000E+00
			385.00		1.7268E+001	10.000E+00
			385.52		1.7359E+001	10.000E+00
			386.05		1.7057E+001	10.000E+00
			386.57		1.7145E+001	10.000E+00
			387.07		1.7009E+001	10.000E+00
			387.57		1.7081E+001	10.000E+00
			388.08		1.7054E+001	10.000E+00
			388.59		1.7005E+001	10.000E+00
			389.09		1.6893E+001	10.000E+00
			389.57		1.6830E+001	10.000E+00
			390.08		1.6862E+001	10.000E+00
			390.60		1.6797E+001	10.000E+00
			391.10		1.6818E+001	10.000E+00
			391.61		1.6635E+001	10.000E+00
			392.13		1.6596E+001	10.000E+00
			392.65		1.6646E+001	10.000E+00
			393.16		1.6687E+001	10.000E+00
			393.66		1.6542E+001	10.000E+00
			394.15		1.6503E+001	10.000E+00
			394.66		1.6460E+001	10.000E+00
			395.17		1.6312E+001	10.000E+00
			395.69		1.6423E+001	10.000E+00
			396.19		1.6287E+001	10.000E+00
			396.71		1.6305E+001	10.000E+00
			397.22		1.6177E+001	10.000E+00
			397.72		1.6107E+001	10.000E+00
			398.22		1.6175E+001	10.000E+00
			398.72		1.6139E+001	10.000E+00
			399.23		1.6131E+001	10.000E+00
			399.73		1.5975E+001	10.000E+00
			400.23		1.6058E+001	10.000E+00
			400.75		1.5974E+001	10.000E+00
