BEGIN_SCAN_DATA
	FORMAT=CC-Export V1.9
	FILE_CREATION_DATE=11-Aug-2015 16:03:11
	LAST_MODIFIED=11-Aug-2015 16:03:11
	BEGIN_SCAN   1
		TASK_NAME=tba PDD Profiles
		PROGRAM=BistroMath.exe v2.80 alpha (build 443)
		MEAS_DATE=11-Aug-2015 19:48:07
		LINAC=U15
		MODALITY=X
		ISOCENTER=1435.0
		INPLANE_AXIS=Y
		CROSSPLANE_AXIS=X
		DEPTH_AXIS=Z
		INPLANE_AXIS_DIR=GUN_TARGET
		CROSSPLANE_AXIS_DIR=LEFT_RIGHT
		DEPTH_AXIS_DIR=UP_DOWN
		ENERGY=6.00
		NOMINAL_DMAX=17.00
		SSD=800.00
		SCD=494.00
		BLOCK=0
		WEDGE_ANGLE=0.00
		FIELD_INPLANE=125.00
		FIELD_CROSSPLANE=125.00
		FIELD_TYPE=RECTANGULAR
		GANTRY=0.00
		GANTRY_UPRIGHT_POSITION=0.00
		GANTRY_ROTATION=CW
		COLL_ANGLE=0.00
		COLL_OFFSET_INPLANE=0.00
		COLL_OFFSET_CROSSPLANE=0.00
		SCAN_CURVETYPE=PDD
		SCAN_DEPTH=0.00
		SCAN_OFFAXIS_INPLANE=0.00
		SCAN_OFFAXIS_CROSSPLANE=0.00
		SCAN_ANGLE=0.00
		SCAN_DIAGONAL=NOT_DIAGONAL
		SCAN_DIRECTION=POSITIVE
		SCAN_COLOR=0
		MEAS_MEDIUM=water
		MEAS_TIME=0.00
		MEAS_UNIT=Relative dose
		DELAY_TIMES=20.00;0.00;150.00;0.00;400.00;0.00;20.00;0.00;150.00;0.00;400.00;0.00;20.00;0.00;150.00;0.00;400.00;0.00;10.00;0.50;150.00;0.00;270.00;0.00;10.00;0.50;150.00;0.00;270.00;0.00;10.00;0.50;150.00;0.00;270.00;0.00;10.00;0.50;150.00;0.00;270.00;0.00;20.00;0.00;150.00;0.00;400.00;0.00;10.00;0.50;150.00;0.00;270.00;0.00;10.00;0.50;150.00;0.00;270.00;0.00;10.00;0.50;150.00;0.00;270.00;0.00;
		BEGIN_DATA
			-0.50		8.6683E+001	10.000E+00
			0.35		9.2492E+001	10.000E+00
			0.86		9.7387E+001	10.000E+00
			1.39		1.0464E+002	10.000E+00
			1.91		1.1226E+002	10.000E+00
			2.42		1.1920E+002	10.000E+00
			2.93		1.2435E+002	10.000E+00
			3.43		1.2913E+002	10.000E+00
			3.94		1.3369E+002	10.000E+00
			4.45		1.3915E+002	10.000E+00
			4.93		1.4430E+002	10.000E+00
			5.42		1.4794E+002	10.000E+00
			5.93		1.5009E+002	10.000E+00
			6.45		1.5147E+002	10.000E+00
			6.96		1.5289E+002	10.000E+00
			7.47		1.5497E+002	10.000E+00
			7.99		1.5688E+002	10.000E+00
			8.51		1.5787E+002	10.000E+00
			9.02		1.5910E+002	10.000E+00
			9.51		1.5951E+002	10.000E+00
			10.01		1.6054E+002	10.000E+00
			10.52		1.6101E+002	10.000E+00
			11.02		1.6111E+002	10.000E+00
			11.53		1.6136E+002	10.000E+00
			12.03		1.6192E+002	10.000E+00
			12.52		1.6193E+002	10.000E+00
			13.05		1.6192E+002	10.000E+00
			13.54		1.6191E+002	10.000E+00
			14.04		1.6194E+002	10.000E+00
			14.57		1.6169E+002	10.000E+00
			15.08		1.6163E+002	10.000E+00
			15.59		1.6139E+002	10.000E+00
			16.10		1.6157E+002	10.000E+00
			16.61		1.6098E+002	10.000E+00
			17.12		1.6076E+002	10.000E+00
			17.61		1.6032E+002	10.000E+00
			18.13		1.6030E+002	10.000E+00
			18.65		1.6003E+002	10.000E+00
			19.15		1.5974E+002	10.000E+00
			19.64		1.5954E+002	10.000E+00
			20.14		1.5942E+002	10.000E+00
			20.67		1.5869E+002	10.000E+00
			21.19		1.5810E+002	10.000E+00
			21.68		1.5797E+002	10.000E+00
			22.17		1.5755E+002	10.000E+00
			22.68		1.5731E+002	10.000E+00
			23.19		1.5676E+002	10.000E+00
			23.71		1.5623E+002	10.000E+00
			24.22		1.5622E+002	10.000E+00
			24.73		1.5549E+002	10.000E+00
			25.24		1.5533E+002	10.000E+00
			25.75		1.5476E+002	10.000E+00
			26.25		1.5455E+002	10.000E+00
			26.74		1.5442E+002	10.000E+00
			27.25		1.5363E+002	10.000E+00
			27.75		1.5339E+002	10.000E+00
			28.26		1.5302E+002	10.000E+00
			28.79		1.5257E+002	10.000E+00
			29.29		1.5228E+002	10.000E+00
			29.79		1.5199E+002	10.000E+00
			30.30		1.5179E+002	10.000E+00
			30.82		1.5142E+002	10.000E+00
			31.34		1.5079E+002	10.000E+00
			31.85		1.5069E+002	10.000E+00
			32.33		1.4999E+002	10.000E+00
			32.84		1.4956E+002	10.000E+00
			33.36		1.4931E+002	10.000E+00
			33.86		1.4902E+002	10.000E+00
			34.37		1.4848E+002	10.000E+00
			34.88		1.4792E+002	10.000E+00
			35.38		1.4762E+002	10.000E+00
			35.90		1.4787E+002	10.000E+00
			36.42		1.4707E+002	10.000E+00
			36.92		1.4686E+002	10.000E+00
			37.43		1.4594E+002	10.000E+00
			37.94		1.4573E+002	10.000E+00
			38.44		1.4564E+002	10.000E+00
			38.94		1.4526E+002	10.000E+00
			39.43		1.4520E+002	10.000E+00
			39.94		1.4415E+002	10.000E+00
			40.47		1.4415E+002	10.000E+00
			40.97		1.4377E+002	10.000E+00
			41.46		1.4352E+002	10.000E+00
			41.96		1.4295E+002	10.000E+00
			42.46		1.4231E+002	10.000E+00
			42.97		1.4211E+002	10.000E+00
			43.48		1.4184E+002	10.000E+00
			44.00		1.4149E+002	10.000E+00
			44.51		1.4092E+002	10.000E+00
			45.01		1.4114E+002	10.000E+00
			45.50		1.4024E+002	10.000E+00
			46.01		1.4012E+002	10.000E+00
			46.53		1.3963E+002	10.000E+00
			47.03		1.3964E+002	10.000E+00
			47.53		1.3897E+002	10.000E+00
			48.05		1.3877E+002	10.000E+00
			48.57		1.3806E+002	10.000E+00
			49.07		1.3794E+002	10.000E+00
			49.57		1.3756E+002	10.000E+00
			50.07		1.3702E+002	10.000E+00
			50.56		1.3699E+002	10.000E+00
			51.08		1.3678E+002	10.000E+00
			51.58		1.3599E+002	10.000E+00
			52.09		1.3562E+002	10.000E+00
			52.62		1.3548E+002	10.000E+00
			53.12		1.3488E+002	10.000E+00
			53.62		1.3475E+002	10.000E+00
			54.12		1.3420E+002	10.000E+00
			54.61		1.3380E+002	10.000E+00
			55.12		1.3356E+002	10.000E+00
			55.63		1.3327E+002	10.000E+00
			56.14		1.3260E+002	10.000E+00
			56.66		1.3254E+002	10.000E+00
			57.17		1.3191E+002	10.000E+00
			57.67		1.3195E+002	10.000E+00
			58.16		1.3118E+002	10.000E+00
			58.68		1.3079E+002	10.000E+00
			59.19		1.3035E+002	10.000E+00
			59.68		1.3009E+002	10.000E+00
			60.18		1.3016E+002	10.000E+00
			60.68		1.2980E+002	10.000E+00
			61.19		1.2926E+002	10.000E+00
			61.71		1.2884E+002	10.000E+00
			62.22		1.2867E+002	10.000E+00
			62.70		1.2840E+002	10.000E+00
			63.21		1.2801E+002	10.000E+00
			63.71		1.2762E+002	10.000E+00
			64.20		1.2716E+002	10.000E+00
			64.73		1.2674E+002	10.000E+00
			65.23		1.2677E+002	10.000E+00
			65.73		1.2607E+002	10.000E+00
			66.26		1.2596E+002	10.000E+00
			66.76		1.2562E+002	10.000E+00
			67.26		1.2519E+002	10.000E+00
			67.76		1.2472E+002	10.000E+00
			68.26		1.2426E+002	10.000E+00
			68.76		1.2380E+002	10.000E+00
			69.27		1.2375E+002	10.000E+00
			69.78		1.2359E+002	10.000E+00
			70.28		1.2303E+002	10.000E+00
			70.79		1.2283E+002	10.000E+00
			71.30		1.2259E+002	10.000E+00
			71.81		1.2215E+002	10.000E+00
			72.32		1.2182E+002	10.000E+00
			72.83		1.2149E+002	10.000E+00
			73.35		1.2080E+002	10.000E+00
			73.87		1.2078E+002	10.000E+00
			74.37		1.2014E+002	10.000E+00
			74.87		1.2025E+002	10.000E+00
			75.37		1.1960E+002	10.000E+00
			75.88		1.1957E+002	10.000E+00
			76.39		1.1920E+002	10.000E+00
			76.89		1.1899E+002	10.000E+00
			77.38		1.1858E+002	10.000E+00
			77.88		1.1828E+002	10.000E+00
			78.38		1.1744E+002	10.000E+00
			78.89		1.1749E+002	10.000E+00
			79.42		1.1725E+002	10.000E+00
			79.91		1.1705E+002	10.000E+00
			80.40		1.1662E+002	10.000E+00
			80.90		1.1631E+002	10.000E+00
			81.40		1.1578E+002	10.000E+00
			81.91		1.1563E+002	10.000E+00
			82.43		1.1535E+002	10.000E+00
			82.93		1.1485E+002	10.000E+00
			83.42		1.1461E+002	10.000E+00
			83.93		1.1448E+002	10.000E+00
			84.45		1.1396E+002	10.000E+00
			84.95		1.1346E+002	10.000E+00
			85.47		1.1346E+002	10.000E+00
			85.98		1.1307E+002	10.000E+00
			86.50		1.1286E+002	10.000E+00
			87.00		1.1252E+002	10.000E+00
			87.48		1.1232E+002	10.000E+00
			87.97		1.1197E+002	10.000E+00
			88.50		1.1167E+002	10.000E+00
			89.02		1.1121E+002	10.000E+00
			89.52		1.1074E+002	10.000E+00
			90.03		1.1035E+002	10.000E+00
			90.55		1.1031E+002	10.000E+00
			91.06		1.1036E+002	10.000E+00
			91.57		1.0985E+002	10.000E+00
			92.08		1.0951E+002	10.000E+00
			92.58		1.0920E+002	10.000E+00
			93.09		1.0884E+002	10.000E+00
			93.58		1.0840E+002	10.000E+00
			94.09		1.0780E+002	10.000E+00
			94.61		1.0762E+002	10.000E+00
			95.12		1.0733E+002	10.000E+00
			95.59		1.0737E+002	10.000E+00
			96.10		1.0688E+002	10.000E+00
			96.62		1.0635E+002	10.000E+00
			97.14		1.0633E+002	10.000E+00
			97.64		1.0602E+002	10.000E+00
			98.15		1.0557E+002	10.000E+00
			98.64		1.0525E+002	10.000E+00
			99.15		1.0491E+002	10.000E+00
			99.68		1.0459E+002	10.000E+00
			100.19		1.0447E+002	10.000E+00
			100.68		1.0429E+002	10.000E+00
			101.18		1.0379E+002	10.000E+00
			101.69		1.0336E+002	10.000E+00
			102.19		1.0333E+002	10.000E+00
			102.71		1.0297E+002	10.000E+00
			103.22		1.0253E+002	10.000E+00
			103.71		1.0230E+002	10.000E+00
			104.21		1.0188E+002	10.000E+00
			104.74		1.0148E+002	10.000E+00
			105.24		1.0126E+002	10.000E+00
			105.72		1.0131E+002	10.000E+00
			106.24		1.0083E+002	10.000E+00
			106.75		1.0055E+002	10.000E+00
			107.27		1.0017E+002	10.000E+00
			107.79		1.0007E+002	10.000E+00
			108.30		9.9800E+001	10.000E+00
			108.80		9.9476E+001	10.000E+00
			109.30		9.9110E+001	10.000E+00
			109.81		9.9057E+001	10.000E+00
			110.30		9.8573E+001	10.000E+00
			110.80		9.8100E+001	10.000E+00
			111.30		9.8175E+001	10.000E+00
			111.82		9.7818E+001	10.000E+00
			112.36		9.7418E+001	10.000E+00
			112.90		9.7394E+001	10.000E+00
			113.44		9.6951E+001	10.000E+00
			113.97		9.6778E+001	10.000E+00
			114.45		9.6173E+001	10.000E+00
			114.88		9.5864E+001	10.000E+00
			115.28		9.5760E+001	10.000E+00
			115.72		9.5980E+001	10.000E+00
			116.18		9.5626E+001	10.000E+00
			116.69		9.5253E+001	10.000E+00
			117.27		9.4968E+001	10.000E+00
			117.89		9.4524E+001	10.000E+00
			118.60		9.4017E+001	10.000E+00
			119.50		9.3436E+001	10.000E+00
			120.00		9.3408E+001	10.000E+00
		END_DATA
	END_SCAN   1
END_SCAN_DATA
