BEGIN_SCAN_DATA
	FORMAT=CC-Export V1.9
	FILE_CREATION_DATE=11-aug-2015 16:03:11
	LAST_MODIFIED=11-aug-2015 16:03:11
	BEGIN_SCAN   1
		TASK_NAME=tba PDD Profiles
		PROGRAM=BistroMath.exe v2.80 alpha (build 443)
		MEAS_DATE=11-aug-2015 19:47:20
		LINAC=U15
		MODALITY=X
		ISOCENTER=1435.0
		INPLANE_AXIS=Y
		CROSSPLANE_AXIS=X
		DEPTH_AXIS=Z
		INPLANE_AXIS_DIR=GUN_TARGET
		CROSSPLANE_AXIS_DIR=LEFT_RIGHT
		DEPTH_AXIS_DIR=UP_DOWN
		ENERGY=6.00
		NOMINAL_DMAX=17.00
		SSD=800.00
		SCD=494.00
		BLOCK=0
		WEDGE_ANGLE=0.00
		FIELD_INPLANE=125.00
		FIELD_CROSSPLANE=125.00
		FIELD_TYPE=RECTANGULAR
		GANTRY=0.00
		GANTRY_UPRIGHT_POSITION=0.00
		GANTRY_ROTATION=CW
		COLL_ANGLE=0.00
		COLL_OFFSET_INPLANE=0.00
		COLL_OFFSET_CROSSPLANE=0.00
		SCAN_CURVETYPE=PDD
		SCAN_DEPTH=0.00
		SCAN_OFFAXIS_INPLANE=0.00
		SCAN_OFFAXIS_CROSSPLANE=0.00
		SCAN_ANGLE=0.00
		SCAN_DIAGONAL=NOT_DIAGONAL
		SCAN_DIRECTION=POSITIVE
		SCAN_COLOR=0
		MEAS_MEDIUM=water
		MEAS_TIME=0.00
		MEAS_UNIT=Relative dose
		DELAY_TIMES=20.00;0.00;150.00;0.00;400.00;0.00;20.00;0.00;150.00;0.00;400.00;0.00;20.00;0.00;150.00;0.00;400.00;0.00;10.00;0.50;150.00;0.00;270.00;0.00;10.00;0.50;150.00;0.00;270.00;0.00;10.00;0.50;150.00;0.00;270.00;0.00;10.00;0.50;150.00;0.00;270.00;0.00;20.00;0.00;150.00;0.00;400.00;0.00;10.00;0.50;150.00;0.00;270.00;0.00;10.00;0.50;150.00;0.00;270.00;0.00;10.00;0.50;150.00;0.00;270.00;0.00;20.00;0.00;150.00;0.00;400.00;0.00;20.00;0.00;150.00;0.00;400.00;0.00;20.00;0.00;150.00;0.00;400.00;0.00;10.00;0.50;150.00;0.00;270.00;0.00;10.00;0.50;150.00;0.00;270.00;0.00;10.00;0.50;150.00;0.00;270.00;0.00;10.00;0.50;150.00;0.00;270.00;0.00;20.00;0.00;150.00;0.00;400.00;0.00;10.00;0.50;150.00;0.00;270.00;0.00;10.00;0.50;150.00;0.00;270.00;0.00;10.00;0.50;150.00;0.00;270.00;0.00;20.00;0.00;150.00;0.00;400.00;0.00;20.00;0.00;150.00;0.00;400.00;0.00;20.00;0.00;150.00;0.00;400.00;0.00;10.00;0.50;150.00;0.00;270.00;0.00;10.00;0.50;150.00;0.00;270.00;0.00;10.00;0.50;150.00;0.00;270.00;0.00;10.00;0.50;150.00;0.00;270.00;0.00;20.00;0.00;150.00;0.00;400.00;0.00;10.00;0.50;150.00;0.00;270.00;0.00;10.00;0.50;150.00;0.00;270.00;0.00;10.00;0.50;150.00;0.00;270.00;0.00;
		BEGIN_DATA
			50.00		1.3711E+002	10.000E+00
			50.74		1.3650E+002	10.000E+00
			51.25		1.3633E+002	10.000E+00
			51.75		1.3578E+002	10.000E+00
			52.27		1.3550E+002	10.000E+00
			52.79		1.3525E+002	10.000E+00
			53.29		1.3465E+002	10.000E+00
			53.79		1.3451E+002	10.000E+00
			54.29		1.3394E+002	10.000E+00
			54.79		1.3361E+002	10.000E+00
			55.30		1.3341E+002	10.000E+00
			55.82		1.3294E+002	10.000E+00
			56.32		1.3253E+002	10.000E+00
			56.84		1.3213E+002	10.000E+00
			57.34		1.3176E+002	10.000E+00
			57.83		1.3173E+002	10.000E+00
			58.34		1.3136E+002	10.000E+00
			58.86		1.3083E+002	10.000E+00
			59.37		1.3077E+002	10.000E+00
			59.87		1.3039E+002	10.000E+00
			60.37		1.2978E+002	10.000E+00
			60.87		1.2970E+002	10.000E+00
			61.38		1.2912E+002	10.000E+00
			61.89		1.2908E+002	10.000E+00
			62.40		1.2867E+002	10.000E+00
			62.90		1.2810E+002	10.000E+00
			63.41		1.2822E+002	10.000E+00
			63.90		1.2769E+002	10.000E+00
			64.39		1.2708E+002	10.000E+00
			64.90		1.2692E+002	10.000E+00
			65.41		1.2650E+002	10.000E+00
			65.94		1.2624E+002	10.000E+00
			66.46		1.2571E+002	10.000E+00
			66.95		1.2547E+002	10.000E+00
			67.46		1.2529E+002	10.000E+00
			67.98		1.2489E+002	10.000E+00
			68.47		1.2447E+002	10.000E+00
			68.97		1.2416E+002	10.000E+00
			69.49		1.2365E+002	10.000E+00
			69.98		1.2304E+002	10.000E+00
			70.49		1.2291E+002	10.000E+00
			71.01		1.2256E+002	10.000E+00
			71.52		1.2254E+002	10.000E+00
			72.02		1.2189E+002	10.000E+00
			72.51		1.2175E+002	10.000E+00
			73.01		1.2122E+002	10.000E+00
			73.53		1.2089E+002	10.000E+00
			74.04		1.2073E+002	10.000E+00
			74.54		1.2034E+002	10.000E+00
			75.04		1.1975E+002	10.000E+00
			75.54		1.1978E+002	10.000E+00
			76.07		1.1939E+002	10.000E+00
			76.59		1.1911E+002	10.000E+00
			77.08		1.1901E+002	10.000E+00
			77.57		1.1856E+002	10.000E+00
			78.07		1.1830E+002	10.000E+00
			78.58		1.1788E+002	10.000E+00
			79.11		1.1726E+002	10.000E+00
			79.62		1.1696E+002	10.000E+00
			80.10		1.1617E+002	10.000E+00
			80.60		1.1608E+002	10.000E+00
			81.10		1.1604E+002	10.000E+00
			81.61		1.1566E+002	10.000E+00
			82.13		1.1526E+002	10.000E+00
			82.65		1.1516E+002	10.000E+00
			83.14		1.1456E+002	10.000E+00
			83.65		1.1424E+002	10.000E+00
			84.17		1.1437E+002	10.000E+00
			84.68		1.1376E+002	10.000E+00
			85.19		1.1341E+002	10.000E+00
			85.70		1.1314E+002	10.000E+00
			86.22		1.1290E+002	10.000E+00
			86.73		1.1241E+002	10.000E+00
			87.23		1.1222E+002	10.000E+00
			87.72		1.1197E+002	10.000E+00
			88.23		1.1176E+002	10.000E+00
			88.76		1.1138E+002	10.000E+00
			89.26		1.1111E+002	10.000E+00
			89.74		1.1071E+002	10.000E+00
			90.25		1.1052E+002	10.000E+00
			90.76		1.1015E+002	10.000E+00
			91.26		1.0941E+002	10.000E+00
			91.78		1.0941E+002	10.000E+00
			92.29		1.0911E+002	10.000E+00
			92.80		1.0917E+002	10.000E+00
			93.30		1.0872E+002	10.000E+00
			93.81		1.0839E+002	10.000E+00
			94.33		1.0828E+002	10.000E+00
			94.84		1.0759E+002	10.000E+00
			95.34		1.0749E+002	10.000E+00
			95.82		1.0711E+002	10.000E+00
			96.33		1.0647E+002	10.000E+00
			96.84		1.0617E+002	10.000E+00
			97.36		1.0588E+002	10.000E+00
			97.87		1.0579E+002	10.000E+00
			98.36		1.0561E+002	10.000E+00
			98.87		1.0528E+002	10.000E+00
			99.40		1.0490E+002	10.000E+00
			99.90		1.0470E+002	10.000E+00
			100.40		1.0429E+002	10.000E+00
			100.89		1.0397E+002	10.000E+00
			101.38		1.0367E+002	10.000E+00
			101.89		1.0347E+002	10.000E+00
			102.40		1.0314E+002	10.000E+00
			102.92		1.0277E+002	10.000E+00
			103.43		1.0233E+002	10.000E+00
			103.93		1.0228E+002	10.000E+00
			104.44		1.0213E+002	10.000E+00
			104.97		1.0164E+002	10.000E+00
			105.47		1.0148E+002	10.000E+00
			105.96		1.0106E+002	10.000E+00
			106.48		1.0069E+002	10.000E+00
			106.98		1.0050E+002	10.000E+00
			107.49		1.0012E+002	10.000E+00
			107.99		1.0019E+002	10.000E+00
			108.48		9.9760E+001	10.000E+00
			109.01		9.9486E+001	10.000E+00
			109.54		9.9158E+001	10.000E+00
			110.05		9.8808E+001	10.000E+00
			110.56		9.8362E+001	10.000E+00
			111.06		9.8185E+001	10.000E+00
			111.57		9.7741E+001	10.000E+00
			112.10		9.7766E+001	10.000E+00
			112.61		9.7380E+001	10.000E+00
			113.12		9.7121E+001	10.000E+00
			113.62		9.6936E+001	10.000E+00
			114.13		9.6767E+001	10.000E+00
			114.64		9.6343E+001	10.000E+00
			115.13		9.6259E+001	10.000E+00
			115.62		9.5863E+001	10.000E+00
			116.15		9.5445E+001	10.000E+00
			116.64		9.5133E+001	10.000E+00
			117.15		9.4882E+001	10.000E+00
			117.66		9.4594E+001	10.000E+00
			118.16		9.4151E+001	10.000E+00
			118.67		9.3991E+001	10.000E+00
			119.17		9.3804E+001	10.000E+00
			119.69		9.3683E+001	10.000E+00
			120.21		9.3225E+001	10.000E+00
			120.71		9.3048E+001	10.000E+00
			121.21		9.2480E+001	10.000E+00
			121.72		9.2348E+001	10.000E+00
			122.23		9.1953E+001	10.000E+00
			122.73		9.1776E+001	10.000E+00
			123.26		9.1637E+001	10.000E+00
			123.77		9.1503E+001	10.000E+00
			124.27		9.1199E+001	10.000E+00
			124.79		9.0883E+001	10.000E+00
			125.29		9.0692E+001	10.000E+00
			125.79		9.0080E+001	10.000E+00
			126.29		9.0050E+001	10.000E+00
			126.81		8.9781E+001	10.000E+00
			127.30		8.9609E+001	10.000E+00
			127.81		8.9212E+001	10.000E+00
			128.30		8.8986E+001	10.000E+00
			128.80		8.9027E+001	10.000E+00
			129.33		8.8496E+001	10.000E+00
			129.85		8.8204E+001	10.000E+00
			130.35		8.8038E+001	10.000E+00
			130.87		8.7699E+001	10.000E+00
			131.36		8.7416E+001	10.000E+00
			131.87		8.7263E+001	10.000E+00
			132.38		8.7058E+001	10.000E+00
			132.89		8.6660E+001	10.000E+00
			133.37		8.6371E+001	10.000E+00
			133.88		8.6355E+001	10.000E+00
			134.38		8.6001E+001	10.000E+00
			134.90		8.5630E+001	10.000E+00
			135.42		8.5517E+001	10.000E+00
			135.94		8.5151E+001	10.000E+00
			136.42		8.4919E+001	10.000E+00
			136.93		8.4889E+001	10.000E+00
			137.45		8.4461E+001	10.000E+00
			137.95		8.4208E+001	10.000E+00
			138.47		8.3940E+001	10.000E+00
			138.98		8.3856E+001	10.000E+00
			139.48		8.3520E+001	10.000E+00
			139.99		8.3205E+001	10.000E+00
			140.48		8.3036E+001	10.000E+00
			140.98		8.2849E+001	10.000E+00
			141.50		8.2722E+001	10.000E+00
			142.02		8.2112E+001	10.000E+00
			142.52		8.1975E+001	10.000E+00
			143.03		8.1782E+001	10.000E+00
			143.54		8.1742E+001	10.000E+00
			144.05		8.1376E+001	10.000E+00
			144.56		8.1041E+001	10.000E+00
			145.06		8.0974E+001	10.000E+00
			145.55		8.0754E+001	10.000E+00
			146.03		8.0597E+001	10.000E+00
			146.57		8.0193E+001	10.000E+00
			147.09		8.0041E+001	10.000E+00
			147.60		7.9513E+001	10.000E+00
			148.11		7.9556E+001	10.000E+00
			148.63		7.9169E+001	10.000E+00
			149.14		7.9172E+001	10.000E+00
			149.65		7.9064E+001	10.000E+00
			150.16		7.8713E+001	10.000E+00
			150.67		7.8486E+001	10.000E+00
			151.17		7.8128E+001	10.000E+00
			151.68		7.7835E+001	10.000E+00
			152.20		7.7742E+001	10.000E+00
			152.71		7.7544E+001	10.000E+00
			153.21		7.7186E+001	10.000E+00
			153.71		7.6949E+001	10.000E+00
			154.21		7.6848E+001	10.000E+00
			154.73		7.6453E+001	10.000E+00
			155.24		7.6452E+001	10.000E+00
			155.74		7.6026E+001	10.000E+00
			156.25		7.5920E+001	10.000E+00
			156.75		7.5656E+001	10.000E+00
			157.24		7.5371E+001	10.000E+00
			157.75		7.5101E+001	10.000E+00
			158.26		7.5019E+001	10.000E+00
			158.76		7.4775E+001	10.000E+00
			159.27		7.4600E+001	10.000E+00
			159.77		7.4233E+001	10.000E+00
			160.29		7.4045E+001	10.000E+00
			160.79		7.3890E+001	10.000E+00
			161.30		7.3710E+001	10.000E+00
			161.79		7.3451E+001	10.000E+00
			162.30		7.3228E+001	10.000E+00
			162.79		7.3033E+001	10.000E+00
			163.28		7.2854E+001	10.000E+00
			163.79		7.2633E+001	10.000E+00
			164.30		7.2451E+001	10.000E+00
			164.82		7.2357E+001	10.000E+00
			165.34		7.1989E+001	10.000E+00
			165.83		7.1756E+001	10.000E+00
			166.33		7.1589E+001	10.000E+00
			166.85		7.1502E+001	10.000E+00
			167.35		7.1075E+001	10.000E+00
			167.85		7.0903E+001	10.000E+00
			168.36		7.0689E+001	10.000E+00
			168.88		7.0605E+001	10.000E+00
			169.38		7.0381E+001	10.000E+00
			169.89		7.0036E+001	10.000E+00
			170.40		6.9754E+001	10.000E+00
			170.89		6.9809E+001	10.000E+00
			171.40		6.9552E+001	10.000E+00
			171.90		6.9277E+001	10.000E+00
			172.40		6.8987E+001	10.000E+00
			172.92		6.9013E+001	10.000E+00
			173.41		6.8824E+001	10.000E+00
			173.91		6.8437E+001	10.000E+00
			174.44		6.8447E+001	10.000E+00
			174.95		6.8178E+001	10.000E+00
			175.45		6.8018E+001	10.000E+00
			175.94		6.7800E+001	10.000E+00
			176.46		6.7672E+001	10.000E+00
			176.97		6.7364E+001	10.000E+00
			177.46		6.7142E+001	10.000E+00
			177.96		6.6911E+001	10.000E+00
			178.49		6.6641E+001	10.000E+00
			179.00		6.6621E+001	10.000E+00
			179.50		6.6358E+001	10.000E+00
			180.01		6.6233E+001	10.000E+00
			180.52		6.6135E+001	10.000E+00
			181.03		6.5815E+001	10.000E+00
			181.54		6.5628E+001	10.000E+00
			182.04		6.5530E+001	10.000E+00
			182.53		6.5376E+001	10.000E+00
			183.02		6.5007E+001	10.000E+00
			183.54		6.4898E+001	10.000E+00
			184.06		6.4694E+001	10.000E+00
			184.57		6.4475E+001	10.000E+00
			185.09		6.4213E+001	10.000E+00
			185.59		6.4095E+001	10.000E+00
			186.10		6.3967E+001	10.000E+00
			186.59		6.3730E+001	10.000E+00
			187.09		6.3512E+001	10.000E+00
			187.62		6.3421E+001	10.000E+00
			188.13		6.3216E+001	10.000E+00
			188.62		6.3239E+001	10.000E+00
			189.12		6.3181E+001	10.000E+00
			189.63		6.2634E+001	10.000E+00
			190.16		6.2484E+001	10.000E+00
			190.67		6.2273E+001	10.000E+00
			191.17		6.2139E+001	10.000E+00
			191.68		6.2027E+001	10.000E+00
			192.20		6.1743E+001	10.000E+00
			192.68		6.1662E+001	10.000E+00
			193.18		6.1361E+001	10.000E+00
			193.70		6.1227E+001	10.000E+00
			194.21		6.1025E+001	10.000E+00
			194.71		6.1053E+001	10.000E+00
			195.21		6.0690E+001	10.000E+00
			195.72		6.0407E+001	10.000E+00
			196.23		6.0278E+001	10.000E+00
			196.74		6.0197E+001	10.000E+00
			197.23		5.9976E+001	10.000E+00
			197.73		5.9901E+001	10.000E+00
			198.25		5.9643E+001	10.000E+00
			198.75		5.9554E+001	10.000E+00
			199.25		5.9392E+001	10.000E+00
			199.74		5.9179E+001	10.000E+00
			200.24		5.9036E+001	10.000E+00
			200.76		5.8855E+001	10.000E+00
			201.27		5.8658E+001	10.000E+00
			201.79		5.8593E+001	10.000E+00
			202.28		5.8323E+001	10.000E+00
			202.79		5.8004E+001	10.000E+00
			203.29		5.8080E+001	10.000E+00
			203.78		5.7944E+001	10.000E+00
			204.27		5.7538E+001	10.000E+00
			204.77		5.7383E+001	10.000E+00
			205.28		5.7211E+001	10.000E+00
			205.77		5.7099E+001	10.000E+00
			206.27		5.7063E+001	10.000E+00
			206.76		5.6904E+001	10.000E+00
			207.27		5.6760E+001	10.000E+00
			207.80		5.6298E+001	10.000E+00
			208.31		5.6187E+001	10.000E+00
			208.81		5.6061E+001	10.000E+00
			209.31		5.6100E+001	10.000E+00
			209.81		5.5873E+001	10.000E+00
			210.33		5.5843E+001	10.000E+00
			210.82		5.5497E+001	10.000E+00
			211.32		5.5405E+001	10.000E+00
			211.82		5.5235E+001	10.000E+00
			212.34		5.5163E+001	10.000E+00
			212.85		5.5028E+001	10.000E+00
			213.37		5.4861E+001	10.000E+00
			213.87		5.4560E+001	10.000E+00
			214.39		5.4474E+001	10.000E+00
			214.89		5.4177E+001	10.000E+00
			215.39		5.4199E+001	10.000E+00
			215.88		5.4076E+001	10.000E+00
			216.37		5.3831E+001	10.000E+00
			216.88		5.3679E+001	10.000E+00
			217.38		5.3496E+001	10.000E+00
			217.89		5.3377E+001	10.000E+00
			218.41		5.3199E+001	10.000E+00
			218.92		5.2956E+001	10.000E+00
			219.41		5.3045E+001	10.000E+00
			219.91		5.2781E+001	10.000E+00
			220.44		5.2682E+001	10.000E+00
			220.96		5.2482E+001	10.000E+00
			221.44		5.2373E+001	10.000E+00
			221.94		5.2157E+001	10.000E+00
			222.45		5.2128E+001	10.000E+00
			222.95		5.1909E+001	10.000E+00
			223.48		5.1546E+001	10.000E+00
			223.99		5.1416E+001	10.000E+00
			224.48		5.1432E+001	10.000E+00
			224.98		5.1280E+001	10.000E+00
			225.48		5.1158E+001	10.000E+00
			225.98		5.0927E+001	10.000E+00
			226.49		5.0833E+001	10.000E+00
			226.99		5.0709E+001	10.000E+00
			227.49		5.0553E+001	10.000E+00
			228.01		5.0415E+001	10.000E+00
			228.51		5.0199E+001	10.000E+00
			229.01		5.0031E+001	10.000E+00
			229.52		4.9897E+001	10.000E+00
			230.01		4.9903E+001	10.000E+00
			230.51		4.9853E+001	10.000E+00
			231.01		4.9614E+001	10.000E+00
			231.52		4.9506E+001	10.000E+00
			232.02		4.9262E+001	10.000E+00
			232.52		4.9038E+001	10.000E+00
			233.04		4.8958E+001	10.000E+00
			233.56		4.8790E+001	10.000E+00
			234.06		4.8637E+001	10.000E+00
			234.56		4.8538E+001	10.000E+00
			235.08		4.8226E+001	10.000E+00
			235.60		4.8275E+001	10.000E+00
			236.10		4.8055E+001	10.000E+00
			236.60		4.8005E+001	10.000E+00
			237.12		4.7829E+001	10.000E+00
			237.62		4.7674E+001	10.000E+00
			238.13		4.7553E+001	10.000E+00
			238.63		4.7497E+001	10.000E+00
			239.12		4.7405E+001	10.000E+00
			239.64		4.7102E+001	10.000E+00
			240.16		4.7069E+001	10.000E+00
			240.66		4.6724E+001	10.000E+00
			241.17		4.6765E+001	10.000E+00
			241.69		4.6605E+001	10.000E+00
			242.20		4.6479E+001	10.000E+00
			242.69		4.6289E+001	10.000E+00
			243.21		4.6212E+001	10.000E+00
			243.72		4.6139E+001	10.000E+00
			244.21		4.5836E+001	10.000E+00
			244.72		4.6023E+001	10.000E+00
			245.25		4.5671E+001	10.000E+00
			245.76		4.5655E+001	10.000E+00
			246.26		4.5606E+001	10.000E+00
			246.76		4.5548E+001	10.000E+00
			247.24		4.5240E+001	10.000E+00
			247.74		4.4974E+001	10.000E+00
			248.23		4.4921E+001	10.000E+00
			248.73		4.4669E+001	10.000E+00
			249.26		4.4684E+001	10.000E+00
			249.76		4.4522E+001	10.000E+00
			250.26		4.4582E+001	10.000E+00
			250.76		4.4434E+001	10.000E+00
			251.28		4.4340E+001	10.000E+00
			251.78		4.4243E+001	10.000E+00
			252.28		4.4150E+001	10.000E+00
			252.78		4.3840E+001	10.000E+00
			253.30		4.3720E+001	10.000E+00
			253.81		4.3487E+001	10.000E+00
			254.32		4.3375E+001	10.000E+00
			254.82		4.3226E+001	10.000E+00
			255.35		4.3218E+001	10.000E+00
			255.85		4.3050E+001	10.000E+00
			256.35		4.3029E+001	10.000E+00
			256.87		4.2742E+001	10.000E+00
			257.36		4.2813E+001	10.000E+00
			257.87		4.2559E+001	10.000E+00
			258.38		4.2372E+001	10.000E+00
			258.87		4.2328E+001	10.000E+00
			259.37		4.2079E+001	10.000E+00
			259.88		4.1870E+001	10.000E+00
			260.39		4.1827E+001	10.000E+00
			260.90		4.1877E+001	10.000E+00
			261.41		4.1782E+001	10.000E+00
			261.92		4.1604E+001	10.000E+00
			262.45		4.1355E+001	10.000E+00
			262.96		4.1440E+001	10.000E+00
			263.47		4.1266E+001	10.000E+00
			263.98		4.1149E+001	10.000E+00
			264.48		4.1127E+001	10.000E+00
			264.98		4.1053E+001	10.000E+00
			265.48		4.0744E+001	10.000E+00
			265.95		4.0852E+001	10.000E+00
			266.50		4.0697E+001	10.000E+00
			267.00		4.0399E+001	10.000E+00
			267.51		4.0281E+001	10.000E+00
			268.00		4.0277E+001	10.000E+00
			268.50		4.0244E+001	10.000E+00
			269.00		4.0065E+001	10.000E+00
			269.49		4.0017E+001	10.000E+00
			270.00		3.9765E+001	10.000E+00
			270.52		3.9853E+001	10.000E+00
			271.04		3.9676E+001	10.000E+00
			271.53		3.9451E+001	10.000E+00
			272.03		3.9327E+001	10.000E+00
			272.53		3.9336E+001	10.000E+00
			273.04		3.9195E+001	10.000E+00
			273.57		3.8961E+001	10.000E+00
			274.10		3.8850E+001	10.000E+00
			274.61		3.8788E+001	10.000E+00
			275.13		3.8679E+001	10.000E+00
			275.61		3.8475E+001	10.000E+00
			276.11		3.8391E+001	10.000E+00
			276.62		3.8275E+001	10.000E+00
			277.13		3.8163E+001	10.000E+00
			277.64		3.8193E+001	10.000E+00
			278.14		3.7933E+001	10.000E+00
			278.62		3.7849E+001	10.000E+00
			279.13		3.7733E+001	10.000E+00
			279.64		3.7738E+001	10.000E+00
			280.13		3.7640E+001	10.000E+00
			280.65		3.7440E+001	10.000E+00
			281.16		3.7312E+001	10.000E+00
			281.65		3.7298E+001	10.000E+00
			282.15		3.7172E+001	10.000E+00
			282.67		3.7071E+001	10.000E+00
			283.17		3.6945E+001	10.000E+00
			283.70		3.6810E+001	10.000E+00
			284.21		3.6681E+001	10.000E+00
			284.71		3.6522E+001	10.000E+00
			285.21		3.6565E+001	10.000E+00
			285.73		3.6601E+001	10.000E+00
			286.25		3.6330E+001	10.000E+00
			286.75		3.6341E+001	10.000E+00
			287.25		3.6087E+001	10.000E+00
			287.74		3.6082E+001	10.000E+00
			288.24		3.5891E+001	10.000E+00
			288.75		3.5820E+001	10.000E+00
			289.27		3.5811E+001	10.000E+00
			289.77		3.5643E+001	10.000E+00
			290.28		3.5433E+001	10.000E+00
			290.78		3.5233E+001	10.000E+00
			291.29		3.5236E+001	10.000E+00
			291.81		3.5215E+001	10.000E+00
			292.32		3.5226E+001	10.000E+00
			292.83		3.5124E+001	10.000E+00
			293.33		3.4905E+001	10.000E+00
			293.83		3.4884E+001	10.000E+00
			294.34		3.4601E+001	10.000E+00
			294.85		3.4505E+001	10.000E+00
			295.34		3.4463E+001	10.000E+00
			295.85		3.4318E+001	10.000E+00
			296.36		3.4327E+001	10.000E+00
			296.86		3.4305E+001	10.000E+00
			297.39		3.4169E+001	10.000E+00
			297.88		3.4061E+001	10.000E+00
			298.39		3.4043E+001	10.000E+00
			298.90		3.3892E+001	10.000E+00
			299.38		3.3693E+001	10.000E+00
			299.86		3.3715E+001	10.000E+00
			300.36		3.3567E+001	10.000E+00
			300.86		3.3466E+001	10.000E+00
			301.35		3.3449E+001	10.000E+00
			301.86		3.3366E+001	10.000E+00
			302.38		3.3310E+001	10.000E+00
			302.93		3.3108E+001	10.000E+00
			303.47		3.3082E+001	10.000E+00
			303.98		3.3076E+001	10.000E+00
			304.47		3.2741E+001	10.000E+00
			304.90		3.2643E+001	10.000E+00
			305.33		3.2715E+001	10.000E+00
			305.74		3.2591E+001	10.000E+00
			306.18		3.2589E+001	10.000E+00
			306.68		3.2534E+001	10.000E+00
			307.23		3.2227E+001	10.000E+00
			307.86		3.2346E+001	10.000E+00
			308.59		3.2107E+001	10.000E+00
			309.47		3.1886E+001	10.000E+00
			309.99		3.1952E+001	10.000E+00
			310.00		3.1952E+001	10.000E+00
		END_DATA
	END_SCAN   1
END_SCAN_DATA
