BEGIN_SCAN_DATA
	FORMAT=CC-Export V1.9
	FILE_CREATION_DATE=11-Aug-2015 16:03:11
	LAST_MODIFIED=11-Aug-2015 16:03:11
	BEGIN_SCAN   1
		TASK_NAME=tba PDD Profiles
		PROGRAM=BistroMath.exe v2.80 alpha (build 443)
		MEAS_DATE=11-Aug-2015 19:36:44
		LINAC=U15
		MODALITY=X
		ISOCENTER=1435.0
		INPLANE_AXIS=Y
		CROSSPLANE_AXIS=X
		DEPTH_AXIS=Z
		INPLANE_AXIS_DIR=GUN_TARGET
		CROSSPLANE_AXIS_DIR=LEFT_RIGHT
		DEPTH_AXIS_DIR=UP_DOWN
		ENERGY=6.00
		NOMINAL_DMAX=17.00
		SSD=1000.00
		SCD=494.00
		BLOCK=0
		WEDGE_ANGLE=0.00
		FIELD_INPLANE=100.00
		FIELD_CROSSPLANE=100.00
		FIELD_TYPE=RECTANGULAR
		GANTRY=0.00
		GANTRY_UPRIGHT_POSITION=0.00
		GANTRY_ROTATION=CW
		COLL_ANGLE=0.00
		COLL_OFFSET_INPLANE=0.00
		COLL_OFFSET_CROSSPLANE=0.00
		SCAN_CURVETYPE=PDD
		SCAN_DEPTH=0.00
		SCAN_OFFAXIS_INPLANE=0.00
		SCAN_OFFAXIS_CROSSPLANE=0.00
		SCAN_ANGLE=0.00
		SCAN_DIAGONAL=NOT_DIAGONAL
		SCAN_DIRECTION=POSITIVE
		SCAN_COLOR=0
		MEAS_MEDIUM=water
		MEAS_TIME=0.00
		MEAS_UNIT=Relative dose
		DELAY_TIMES=20.00;0.00;150.00;0.00;400.00;0.00;20.00;0.00;150.00;0.00;400.00;0.00;20.00;0.00;150.00;0.00;400.00;0.00;10.00;0.50;150.00;0.00;270.00;0.00;10.00;0.50;150.00;0.00;270.00;0.00;10.00;0.50;150.00;0.00;270.00;0.00;10.00;0.50;150.00;0.00;270.00;0.00;20.00;0.00;150.00;0.00;400.00;0.00;10.00;0.50;150.00;0.00;270.00;0.00;10.00;0.50;150.00;0.00;270.00;0.00;10.00;0.50;150.00;0.00;270.00;0.00;20.00;0.00;150.00;0.00;400.00;0.00;20.00;0.00;150.00;0.00;400.00;0.00;20.00;0.00;150.00;0.00;400.00;0.00;10.00;0.50;150.00;0.00;270.00;0.00;10.00;0.50;150.00;0.00;270.00;0.00;10.00;0.50;150.00;0.00;270.00;0.00;10.00;0.50;150.00;0.00;270.00;0.00;20.00;0.00;150.00;0.00;400.00;0.00;10.00;0.50;150.00;0.00;270.00;0.00;10.00;0.50;150.00;0.00;270.00;0.00;10.00;0.50;150.00;0.00;270.00;0.00;
		BEGIN_DATA
			-0.50		5.7500E+001	10.000E+00
			-0.04		5.9589E+001	10.000E+00
			0.46		6.2357E+001	10.000E+00
			0.96		6.6057E+001	10.000E+00
			1.47		7.0668E+001	10.000E+00
			1.99		7.5511E+001	10.000E+00
			2.49		8.0675E+001	10.000E+00
			2.99		8.5572E+001	10.000E+00
			3.51		9.0801E+001	10.000E+00
			4.02		9.4601E+001	10.000E+00
			4.53		9.7792E+001	10.000E+00
			5.03		1.0096E+002	10.000E+00
			5.52		1.0317E+002	10.000E+00
			6.03		1.0530E+002	10.000E+00
			6.54		1.0667E+002	10.000E+00
			7.04		1.0846E+002	10.000E+00
			7.56		1.0972E+002	10.000E+00
			8.08		1.1076E+002	10.000E+00
			8.59		1.1193E+002	10.000E+00
			9.11		1.1269E+002	10.000E+00
			9.59		1.1355E+002	10.000E+00
			10.09		1.1392E+002	10.000E+00
			10.61		1.1468E+002	10.000E+00
			11.13		1.1483E+002	10.000E+00
			11.62		1.1510E+002	10.000E+00
			12.12		1.1547E+002	10.000E+00
			12.63		1.1573E+002	10.000E+00
			13.15		1.1588E+002	10.000E+00
			13.66		1.1586E+002	10.000E+00
			14.16		1.1599E+002	10.000E+00
			14.67		1.1568E+002	10.000E+00
			15.18		1.1587E+002	10.000E+00
			15.69		1.1570E+002	10.000E+00
			16.20		1.1564E+002	10.000E+00
			16.72		1.1570E+002	10.000E+00
			17.22		1.1536E+002	10.000E+00
			17.73		1.1506E+002	10.000E+00
			18.26		1.1498E+002	10.000E+00
			18.77		1.1501E+002	10.000E+00
			19.26		1.1480E+002	10.000E+00
			19.75		1.1425E+002	10.000E+00
			20.25		1.1437E+002	10.000E+00
			20.77		1.1408E+002	10.000E+00
			21.29		1.1408E+002	10.000E+00
			21.79		1.1349E+002	10.000E+00
			22.30		1.1332E+002	10.000E+00
			22.82		1.1315E+002	10.000E+00
			23.32		1.1294E+002	10.000E+00
			23.84		1.1266E+002	10.000E+00
			24.33		1.1231E+002	10.000E+00
			24.84		1.1214E+002	10.000E+00
			25.35		1.1199E+002	10.000E+00
			25.86		1.1184E+002	10.000E+00
			26.36		1.1141E+002	10.000E+00
			26.85		1.1117E+002	10.000E+00
			27.36		1.1104E+002	10.000E+00
			27.86		1.1087E+002	10.000E+00
			28.36		1.1057E+002	10.000E+00
			28.89		1.1074E+002	10.000E+00
			29.40		1.1009E+002	10.000E+00
			29.90		1.0961E+002	10.000E+00
			30.40		1.0949E+002	10.000E+00
			30.90		1.0936E+002	10.000E+00
			31.42		1.0895E+002	10.000E+00
			31.92		1.0855E+002	10.000E+00
			32.41		1.0846E+002	10.000E+00
			32.93		1.0837E+002	10.000E+00
			33.45		1.0799E+002	10.000E+00
			33.94		1.0780E+002	10.000E+00
			34.45		1.0757E+002	10.000E+00
			34.96		1.0720E+002	10.000E+00
			35.46		1.0707E+002	10.000E+00
			35.99		1.0702E+002	10.000E+00
			36.50		1.0629E+002	10.000E+00
			37.01		1.0649E+002	10.000E+00
			37.52		1.0632E+002	10.000E+00
			38.02		1.0581E+002	10.000E+00
			38.52		1.0575E+002	10.000E+00
			39.02		1.0529E+002	10.000E+00
			39.52		1.0500E+002	10.000E+00
			40.04		1.0474E+002	10.000E+00
			40.56		1.0435E+002	10.000E+00
			41.06		1.0442E+002	10.000E+00
			41.56		1.0416E+002	10.000E+00
			42.05		1.0394E+002	10.000E+00
			42.55		1.0345E+002	10.000E+00
			43.06		1.0331E+002	10.000E+00
			43.58		1.0281E+002	10.000E+00
			44.09		1.0310E+002	10.000E+00
			44.60		1.0292E+002	10.000E+00
			45.10		1.0263E+002	10.000E+00
			45.61		1.0204E+002	10.000E+00
			46.13		1.0182E+002	10.000E+00
			46.64		1.0169E+002	10.000E+00
			47.14		1.0131E+002	10.000E+00
			47.63		1.0100E+002	10.000E+00
			48.14		1.0083E+002	10.000E+00
			48.66		1.0071E+002	10.000E+00
			49.17		1.0037E+002	10.000E+00
			49.67		1.0019E+002	10.000E+00
			50.18		1.0013E+002	10.000E+00
			50.67		9.9839E+001	10.000E+00
			51.18		9.9699E+001	10.000E+00
			51.68		9.9271E+001	10.000E+00
			52.19		9.8921E+001	10.000E+00
			52.71		9.8562E+001	10.000E+00
			53.22		9.8471E+001	10.000E+00
			53.73		9.8165E+001	10.000E+00
			54.24		9.7942E+001	10.000E+00
			54.74		9.7934E+001	10.000E+00
			55.24		9.7777E+001	10.000E+00
			55.75		9.7518E+001	10.000E+00
			56.26		9.7268E+001	10.000E+00
			56.76		9.6964E+001	10.000E+00
			57.26		9.6670E+001	10.000E+00
			57.76		9.6533E+001	10.000E+00
			58.26		9.6198E+001	10.000E+00
			58.79		9.6035E+001	10.000E+00
			59.29		9.5935E+001	10.000E+00
			59.79		9.5518E+001	10.000E+00
			60.30		9.5287E+001	10.000E+00
			60.80		9.4860E+001	10.000E+00
			61.31		9.4743E+001	10.000E+00
			61.82		9.4659E+001	10.000E+00
			62.33		9.4341E+001	10.000E+00
			62.84		9.3919E+001	10.000E+00
			63.36		9.3812E+001	10.000E+00
			63.85		9.3523E+001	10.000E+00
			64.35		9.3456E+001	10.000E+00
			64.86		9.3177E+001	10.000E+00
			65.36		9.2818E+001	10.000E+00
			65.89		9.2626E+001	10.000E+00
			66.41		9.2470E+001	10.000E+00
			66.90		9.2193E+001	10.000E+00
			67.40		9.1744E+001	10.000E+00
			67.92		9.1781E+001	10.000E+00
			68.42		9.1555E+001	10.000E+00
			68.94		9.1274E+001	10.000E+00
			69.45		9.0962E+001	10.000E+00
			69.95		9.0777E+001	10.000E+00
			70.45		9.0372E+001	10.000E+00
			70.97		9.0355E+001	10.000E+00
			71.48		9.0006E+001	10.000E+00
			71.97		8.9859E+001	10.000E+00
			72.47		8.9500E+001	10.000E+00
			72.99		8.9329E+001	10.000E+00
			73.51		8.9257E+001	10.000E+00
			74.02		8.8929E+001	10.000E+00
			74.52		8.8688E+001	10.000E+00
			75.04		8.8437E+001	10.000E+00
			75.55		8.8308E+001	10.000E+00
			76.08		8.7995E+001	10.000E+00
			76.59		8.7855E+001	10.000E+00
			77.08		8.7559E+001	10.000E+00
			77.57		8.7325E+001	10.000E+00
			78.07		8.7361E+001	10.000E+00
			78.59		8.6899E+001	10.000E+00
			79.12		8.6618E+001	10.000E+00
			79.64		8.6348E+001	10.000E+00
			80.12		8.6078E+001	10.000E+00
			80.62		8.5800E+001	10.000E+00
			81.13		8.5658E+001	10.000E+00
			81.63		8.5466E+001	10.000E+00
			82.16		8.5234E+001	10.000E+00
			82.67		8.5008E+001	10.000E+00
			83.15		8.4886E+001	10.000E+00
			83.65		8.4701E+001	10.000E+00
			84.16		8.4280E+001	10.000E+00
			84.67		8.4140E+001	10.000E+00
			85.19		8.3981E+001	10.000E+00
			85.69		8.3884E+001	10.000E+00
			86.21		8.3413E+001	10.000E+00
			86.73		8.3266E+001	10.000E+00
			87.23		8.3162E+001	10.000E+00
			87.72		8.2944E+001	10.000E+00
			88.23		8.2742E+001	10.000E+00
			88.76		8.2615E+001	10.000E+00
			89.25		8.2312E+001	10.000E+00
			89.76		8.2015E+001	10.000E+00
			90.28		8.1747E+001	10.000E+00
			90.79		8.1743E+001	10.000E+00
			91.29		8.1330E+001	10.000E+00
			91.81		8.1121E+001	10.000E+00
			92.32		8.0873E+001	10.000E+00
			92.83		8.0778E+001	10.000E+00
			93.33		8.0375E+001	10.000E+00
			93.83		8.0211E+001	10.000E+00
			94.35		8.0085E+001	10.000E+00
			94.87		7.9995E+001	10.000E+00
			95.36		7.9751E+001	10.000E+00
			95.85		7.9382E+001	10.000E+00
			96.36		7.9152E+001	10.000E+00
			96.88		7.9035E+001	10.000E+00
			97.38		7.8914E+001	10.000E+00
			97.89		7.8548E+001	10.000E+00
			98.38		7.8264E+001	10.000E+00
			98.88		7.8186E+001	10.000E+00
			99.40		7.8049E+001	10.000E+00
			99.92		7.7950E+001	10.000E+00
			100.42		7.7672E+001	10.000E+00
			100.92		7.7461E+001	10.000E+00
			101.41		7.7105E+001	10.000E+00
			101.91		7.7143E+001	10.000E+00
			102.42		7.6917E+001	10.000E+00
			102.92		7.6728E+001	10.000E+00
			103.44		7.6621E+001	10.000E+00
			103.93		7.6213E+001	10.000E+00
			104.43		7.6173E+001	10.000E+00
			104.95		7.5811E+001	10.000E+00
			105.46		7.5887E+001	10.000E+00
			105.96		7.5503E+001	10.000E+00
			106.48		7.5144E+001	10.000E+00
			106.99		7.4861E+001	10.000E+00
			107.49		7.4612E+001	10.000E+00
			107.99		7.4656E+001	10.000E+00
			108.50		7.4382E+001	10.000E+00
			109.02		7.4289E+001	10.000E+00
			109.53		7.3851E+001	10.000E+00
			110.04		7.3647E+001	10.000E+00
			110.54		7.3625E+001	10.000E+00
			111.05		7.3674E+001	10.000E+00
			111.56		7.3254E+001	10.000E+00
			112.09		7.2945E+001	10.000E+00
			112.60		7.2861E+001	10.000E+00
			113.11		7.2590E+001	10.000E+00
			113.61		7.2384E+001	10.000E+00
			114.11		7.2174E+001	10.000E+00
			114.61		7.2032E+001	10.000E+00
			115.12		7.1717E+001	10.000E+00
			115.62		7.1522E+001	10.000E+00
			116.15		7.1367E+001	10.000E+00
			116.66		7.1216E+001	10.000E+00
			117.18		7.0988E+001	10.000E+00
			117.69		7.0784E+001	10.000E+00
			118.18		7.0740E+001	10.000E+00
			118.69		7.0374E+001	10.000E+00
			119.20		7.0094E+001	10.000E+00
			119.72		7.0147E+001	10.000E+00
			120.23		6.9872E+001	10.000E+00
			120.75		6.9751E+001	10.000E+00
			121.24		6.9473E+001	10.000E+00
			121.75		6.9212E+001	10.000E+00
			122.26		6.9107E+001	10.000E+00
			122.76		6.8934E+001	10.000E+00
			123.28		6.8814E+001	10.000E+00
			123.79		6.8536E+001	10.000E+00
			124.30		6.8334E+001	10.000E+00
			124.81		6.8070E+001	10.000E+00
			125.31		6.8025E+001	10.000E+00
			125.82		6.7693E+001	10.000E+00
			126.34		6.7610E+001	10.000E+00
			126.86		6.7417E+001	10.000E+00
			127.36		6.7294E+001	10.000E+00
			127.86		6.7047E+001	10.000E+00
			128.36		6.6935E+001	10.000E+00
			128.85		6.6831E+001	10.000E+00
			129.38		6.6663E+001	10.000E+00
			129.90		6.6226E+001	10.000E+00
			130.40		6.6286E+001	10.000E+00
			130.91		6.5973E+001	10.000E+00
			131.41		6.5852E+001	10.000E+00
			131.93		6.5623E+001	10.000E+00
			132.45		6.5517E+001	10.000E+00
			132.95		6.5455E+001	10.000E+00
			133.44		6.5229E+001	10.000E+00
			133.94		6.4761E+001	10.000E+00
			134.44		6.4510E+001	10.000E+00
			134.95		6.4788E+001	10.000E+00
			135.47		6.4370E+001	10.000E+00
			135.99		6.4185E+001	10.000E+00
			136.47		6.4042E+001	10.000E+00
			136.98		6.3862E+001	10.000E+00
			137.50		6.3817E+001	10.000E+00
			138.01		6.3547E+001	10.000E+00
			138.51		6.3323E+001	10.000E+00
			139.03		6.2928E+001	10.000E+00
			139.51		6.2974E+001	10.000E+00
			140.01		6.2966E+001	10.000E+00
			140.52		6.2767E+001	10.000E+00
			141.03		6.2493E+001	10.000E+00
			141.54		6.2573E+001	10.000E+00
			142.05		6.2271E+001	10.000E+00
			142.56		6.2008E+001	10.000E+00
			143.06		6.1877E+001	10.000E+00
			143.58		6.1538E+001	10.000E+00
			144.09		6.1493E+001	10.000E+00
			144.60		6.1369E+001	10.000E+00
			145.12		6.1157E+001	10.000E+00
			145.60		6.1078E+001	10.000E+00
			146.08		6.0870E+001	10.000E+00
			146.62		6.0513E+001	10.000E+00
			147.14		6.0563E+001	10.000E+00
			147.65		6.0217E+001	10.000E+00
			148.16		6.0116E+001	10.000E+00
			148.68		5.9935E+001	10.000E+00
			149.19		5.9766E+001	10.000E+00
			149.70		5.9699E+001	10.000E+00
			150.20		5.9332E+001	10.000E+00
			150.69		5.9284E+001	10.000E+00
			151.19		5.9212E+001	10.000E+00
			151.70		5.8873E+001	10.000E+00
			152.23		5.8773E+001	10.000E+00
			152.72		5.8724E+001	10.000E+00
			153.23		5.8498E+001	10.000E+00
			153.75		5.8441E+001	10.000E+00
			154.26		5.8198E+001	10.000E+00
			154.79		5.7934E+001	10.000E+00
			155.29		5.7665E+001	10.000E+00
			155.79		5.7738E+001	10.000E+00
			156.30		5.7623E+001	10.000E+00
			156.79		5.7540E+001	10.000E+00
			157.31		5.7425E+001	10.000E+00
			157.83		5.7173E+001	10.000E+00
			158.34		5.6895E+001	10.000E+00
			158.85		5.6874E+001	10.000E+00
			159.37		5.6576E+001	10.000E+00
			159.88		5.6414E+001	10.000E+00
			160.39		5.6316E+001	10.000E+00
			160.90		5.6033E+001	10.000E+00
			161.41		5.5960E+001	10.000E+00
			161.91		5.5873E+001	10.000E+00
			162.41		5.5713E+001	10.000E+00
			162.91		5.5527E+001	10.000E+00
			163.40		5.5518E+001	10.000E+00
			163.92		5.5054E+001	10.000E+00
			164.45		5.4981E+001	10.000E+00
			164.96		5.4810E+001	10.000E+00
			165.47		5.4626E+001	10.000E+00
			165.94		5.4575E+001	10.000E+00
			166.46		5.4546E+001	10.000E+00
			166.98		5.4423E+001	10.000E+00
			167.49		5.4027E+001	10.000E+00
			168.02		5.4062E+001	10.000E+00
			168.53		5.3828E+001	10.000E+00
			169.03		5.3652E+001	10.000E+00
			169.55		5.3585E+001	10.000E+00
			170.05		5.3314E+001	10.000E+00
			170.55		5.3183E+001	10.000E+00
			171.05		5.3121E+001	10.000E+00
			171.57		5.3144E+001	10.000E+00
			172.06		5.2992E+001	10.000E+00
			172.57		5.2623E+001	10.000E+00
			173.08		5.2586E+001	10.000E+00
			173.58		5.2393E+001	10.000E+00
			174.10		5.2263E+001	10.000E+00
			174.61		5.2231E+001	10.000E+00
			175.12		5.1855E+001	10.000E+00
			175.61		5.1868E+001	10.000E+00
			176.10		5.1645E+001	10.000E+00
			176.60		5.1721E+001	10.000E+00
			177.11		5.1357E+001	10.000E+00
			177.61		5.1411E+001	10.000E+00
			178.11		5.1302E+001	10.000E+00
			178.63		5.1151E+001	10.000E+00
			179.14		5.0879E+001	10.000E+00
			179.64		5.0773E+001	10.000E+00
			180.16		5.0683E+001	10.000E+00
			180.67		5.0581E+001	10.000E+00
			181.18		5.0181E+001	10.000E+00
			181.68		5.0182E+001	10.000E+00
			182.17		5.0022E+001	10.000E+00
			182.66		4.9804E+001	10.000E+00
			183.16		4.9710E+001	10.000E+00
			183.68		4.9560E+001	10.000E+00
			184.20		4.9505E+001	10.000E+00
			184.70		4.9212E+001	10.000E+00
			185.22		4.9218E+001	10.000E+00
			185.72		4.9004E+001	10.000E+00
			186.22		4.8988E+001	10.000E+00
			186.71		4.8770E+001	10.000E+00
			187.21		4.8749E+001	10.000E+00
			187.74		4.8775E+001	10.000E+00
			188.24		4.8317E+001	10.000E+00
			188.73		4.8254E+001	10.000E+00
			189.21		4.8094E+001	10.000E+00
			189.72		4.8031E+001	10.000E+00
			190.22		4.7939E+001	10.000E+00
			190.72		4.7825E+001	10.000E+00
			191.23		4.7632E+001	10.000E+00
			191.75		4.7564E+001	10.000E+00
			192.27		4.7316E+001	10.000E+00
			192.76		4.7209E+001	10.000E+00
			193.26		4.7093E+001	10.000E+00
			193.77		4.6983E+001	10.000E+00
			194.28		4.6817E+001	10.000E+00
			194.77		4.6745E+001	10.000E+00
			195.28		4.6676E+001	10.000E+00
			195.78		4.6487E+001	10.000E+00
			196.30		4.6260E+001	10.000E+00
			196.80		4.6138E+001	10.000E+00
			197.29		4.6022E+001	10.000E+00
			197.81		4.6017E+001	10.000E+00
			198.31		4.5892E+001	10.000E+00
			198.81		4.5735E+001	10.000E+00
			199.30		4.5582E+001	10.000E+00
			199.81		4.5519E+001	10.000E+00
			200.32		4.5345E+001	10.000E+00
			200.82		4.5112E+001	10.000E+00
			201.31		4.5190E+001	10.000E+00
			201.82		4.4920E+001	10.000E+00
			202.32		4.4700E+001	10.000E+00
			202.83		4.4838E+001	10.000E+00
			203.34		4.4614E+001	10.000E+00
			203.84		4.4554E+001	10.000E+00
			204.34		4.4435E+001	10.000E+00
			204.84		4.4222E+001	10.000E+00
			205.36		4.4146E+001	10.000E+00
			205.87		4.3991E+001	10.000E+00
			206.35		4.3886E+001	10.000E+00
			206.85		4.3754E+001	10.000E+00
			207.35		4.3524E+001	10.000E+00
			207.86		4.3512E+001	10.000E+00
			208.37		4.3490E+001	10.000E+00
			208.88		4.3322E+001	10.000E+00
			209.37		4.3323E+001	10.000E+00
			209.86		4.3150E+001	10.000E+00
			210.39		4.2964E+001	10.000E+00
			210.89		4.2855E+001	10.000E+00
			211.37		4.2810E+001	10.000E+00
			211.87		4.2674E+001	10.000E+00
			212.38		4.2564E+001	10.000E+00
			212.87		4.2457E+001	10.000E+00
			213.39		4.2206E+001	10.000E+00
			213.90		4.2216E+001	10.000E+00
			214.41		4.1918E+001	10.000E+00
			214.93		4.1964E+001	10.000E+00
			215.43		4.1713E+001	10.000E+00
			215.94		4.1711E+001	10.000E+00
			216.43		4.1484E+001	10.000E+00
			216.93		4.1430E+001	10.000E+00
			217.45		4.1357E+001	10.000E+00
			217.96		4.1269E+001	10.000E+00
			218.47		4.1315E+001	10.000E+00
			218.97		4.1060E+001	10.000E+00
			219.46		4.0988E+001	10.000E+00
			219.98		4.0759E+001	10.000E+00
			220.51		4.0571E+001	10.000E+00
			221.01		4.0420E+001	10.000E+00
			221.50		4.0555E+001	10.000E+00
			222.00		4.0308E+001	10.000E+00
			222.50		4.0095E+001	10.000E+00
			223.01		4.0189E+001	10.000E+00
			223.53		3.9998E+001	10.000E+00
			224.04		3.9752E+001	10.000E+00
			224.53		3.9846E+001	10.000E+00
			225.03		3.9615E+001	10.000E+00
			225.53		3.9651E+001	10.000E+00
			226.05		3.9529E+001	10.000E+00
			226.54		3.9398E+001	10.000E+00
			227.04		3.9225E+001	10.000E+00
			227.56		3.9271E+001	10.000E+00
			228.08		3.9051E+001	10.000E+00
			228.58		3.8851E+001	10.000E+00
			229.08		3.8846E+001	10.000E+00
			229.60		3.8680E+001	10.000E+00
			230.09		3.8662E+001	10.000E+00
			230.59		3.8441E+001	10.000E+00
			231.11		3.8568E+001	10.000E+00
			231.62		3.8176E+001	10.000E+00
			232.14		3.8115E+001	10.000E+00
			232.65		3.7974E+001	10.000E+00
			233.15		3.7978E+001	10.000E+00
			233.67		3.7968E+001	10.000E+00
			234.17		3.7726E+001	10.000E+00
			234.67		3.7595E+001	10.000E+00
			235.19		3.7527E+001	10.000E+00
			235.71		3.7450E+001	10.000E+00
			236.21		3.7348E+001	10.000E+00
			236.72		3.7311E+001	10.000E+00
			237.23		3.7041E+001	10.000E+00
			237.73		3.7110E+001	10.000E+00
			238.24		3.7021E+001	10.000E+00
			238.75		3.6755E+001	10.000E+00
			239.26		3.6749E+001	10.000E+00
			239.77		3.6626E+001	10.000E+00
			240.30		3.6546E+001	10.000E+00
			240.80		3.6456E+001	10.000E+00
			241.32		3.6327E+001	10.000E+00
			241.84		3.6246E+001	10.000E+00
			242.33		3.6228E+001	10.000E+00
			242.83		3.6074E+001	10.000E+00
			243.34		3.6092E+001	10.000E+00
			243.83		3.5872E+001	10.000E+00
			244.33		3.5743E+001	10.000E+00
			244.83		3.5656E+001	10.000E+00
			245.35		3.5498E+001	10.000E+00
			245.85		3.5444E+001	10.000E+00
			246.37		3.5536E+001	10.000E+00
			246.87		3.5359E+001	10.000E+00
			247.36		3.5340E+001	10.000E+00
			247.86		3.5182E+001	10.000E+00
			248.36		3.5129E+001	10.000E+00
			248.86		3.4752E+001	10.000E+00
			249.38		3.4852E+001	10.000E+00
			249.88		3.4732E+001	10.000E+00
			250.37		3.4546E+001	10.000E+00
			250.88		3.4467E+001	10.000E+00
			251.38		3.4398E+001	10.000E+00
			251.86		3.4365E+001	10.000E+00
			252.37		3.4138E+001	10.000E+00
			252.88		3.4087E+001	10.000E+00
			253.38		3.4105E+001	10.000E+00
			253.90		3.3870E+001	10.000E+00
			254.41		3.3823E+001	10.000E+00
			254.91		3.3779E+001	10.000E+00
			255.44		3.3622E+001	10.000E+00
			255.95		3.3519E+001	10.000E+00
			256.45		3.3406E+001	10.000E+00
			256.95		3.3334E+001	10.000E+00
			257.44		3.3396E+001	10.000E+00
			257.94		3.3225E+001	10.000E+00
			258.45		3.3084E+001	10.000E+00
			258.96		3.3134E+001	10.000E+00
			259.45		3.2917E+001	10.000E+00
			259.96		3.2839E+001	10.000E+00
			260.45		3.2721E+001	10.000E+00
			260.97		3.2552E+001	10.000E+00
			261.48		3.2516E+001	10.000E+00
			261.98		3.2508E+001	10.000E+00
			262.48		3.2320E+001	10.000E+00
			263.00		3.2473E+001	10.000E+00
			263.51		3.2270E+001	10.000E+00
			264.02		3.2091E+001	10.000E+00
			264.53		3.2027E+001	10.000E+00
			265.03		3.2022E+001	10.000E+00
			265.52		3.1824E+001	10.000E+00
			265.99		3.1755E+001	10.000E+00
			266.53		3.1902E+001	10.000E+00
			267.01		3.1616E+001	10.000E+00
			267.52		3.1587E+001	10.000E+00
			268.04		3.1580E+001	10.000E+00
			268.52		3.1512E+001	10.000E+00
			269.03		3.1396E+001	10.000E+00
			269.52		3.1288E+001	10.000E+00
			270.03		3.1276E+001	10.000E+00
			270.55		3.1165E+001	10.000E+00
			271.07		3.0996E+001	10.000E+00
			271.58		3.0902E+001	10.000E+00
			272.07		3.0846E+001	10.000E+00
			272.58		3.0688E+001	10.000E+00
			273.10		3.0716E+001	10.000E+00
			273.63		3.0796E+001	10.000E+00
			274.15		3.0527E+001	10.000E+00
			274.66		3.0350E+001	10.000E+00
			275.17		3.0330E+001	10.000E+00
			275.68		3.0101E+001	10.000E+00
			276.20		3.0157E+001	10.000E+00
			276.70		3.0016E+001	10.000E+00
			277.20		2.9853E+001	10.000E+00
			277.69		2.9890E+001	10.000E+00
			278.19		2.9814E+001	10.000E+00
			278.68		2.9746E+001	10.000E+00
			279.17		2.9685E+001	10.000E+00
			279.69		2.9500E+001	10.000E+00
			280.19		2.9504E+001	10.000E+00
			280.70		2.9418E+001	10.000E+00
			281.21		2.9456E+001	10.000E+00
			281.71		2.9346E+001	10.000E+00
			282.22		2.9220E+001	10.000E+00
			282.72		2.9157E+001	10.000E+00
			283.23		2.9099E+001	10.000E+00
			283.75		2.9132E+001	10.000E+00
			284.26		2.8928E+001	10.000E+00
			284.75		2.8889E+001	10.000E+00
			285.26		2.8729E+001	10.000E+00
			285.77		2.8543E+001	10.000E+00
			286.29		2.8504E+001	10.000E+00
			286.79		2.8418E+001	10.000E+00
			287.29		2.8405E+001	10.000E+00
			287.79		2.8325E+001	10.000E+00
			288.28		2.8255E+001	10.000E+00
			288.79		2.8276E+001	10.000E+00
			289.31		2.8111E+001	10.000E+00
			289.80		2.7913E+001	10.000E+00
			290.29		2.7956E+001	10.000E+00
			290.80		2.7788E+001	10.000E+00
			291.31		2.7764E+001	10.000E+00
			291.81		2.7831E+001	10.000E+00
			292.32		2.7656E+001	10.000E+00
			292.84		2.7474E+001	10.000E+00
			293.36		2.7544E+001	10.000E+00
			293.86		2.7481E+001	10.000E+00
			294.36		2.7397E+001	10.000E+00
			294.84		2.7309E+001	10.000E+00
			295.34		2.7247E+001	10.000E+00
			295.85		2.7206E+001	10.000E+00
			296.35		2.7089E+001	10.000E+00
			296.88		2.6820E+001	10.000E+00
			297.40		2.6896E+001	10.000E+00
			297.90		2.6846E+001	10.000E+00
			298.40		2.6871E+001	10.000E+00
			298.91		2.6780E+001	10.000E+00
			299.40		2.6680E+001	10.000E+00
			299.89		2.6419E+001	10.000E+00
			300.39		2.6485E+001	10.000E+00
			300.89		2.6432E+001	10.000E+00
			301.41		2.6389E+001	10.000E+00
			301.93		2.6164E+001	10.000E+00
			302.44		2.6171E+001	10.000E+00
			302.98		2.6118E+001	10.000E+00
			303.51		2.6115E+001	10.000E+00
			304.02		2.5982E+001	10.000E+00
			304.52		2.5890E+001	10.000E+00
			304.96		2.5797E+001	10.000E+00
			305.37		2.5750E+001	10.000E+00
			305.79		2.5785E+001	10.000E+00
			306.24		2.5682E+001	10.000E+00
			306.75		2.5692E+001	10.000E+00
			307.30		2.5673E+001	10.000E+00
			307.92		2.5464E+001	10.000E+00
			308.63		2.5362E+001	10.000E+00
			309.50		2.5224E+001	10.000E+00
			310.00		2.5003E+001	10.000E+00
		END_DATA
	END_SCAN   1
END_SCAN_DATA
