BEGIN_SCAN_DATA
	FORMAT=CC-Export V1.9
	FILE_CREATION_DATE=11-Aug-2015 16:03:11
	LAST_MODIFIED=11-Aug-2015 16:03:11
	BEGIN_SCAN   1
		TASK_NAME=tba PDD Profiles
		PROGRAM=BistroMath.exe v2.80 alpha (build 443)
		MEAS_DATE=11-Aug-2015 19:38:51
		LINAC=U15
		MODALITY=X
		ISOCENTER=1435.0
		INPLANE_AXIS=Y
		CROSSPLANE_AXIS=X
		DEPTH_AXIS=Z
		INPLANE_AXIS_DIR=GUN_TARGET
		CROSSPLANE_AXIS_DIR=LEFT_RIGHT
		DEPTH_AXIS_DIR=UP_DOWN
		ENERGY=6.00
		NOMINAL_DMAX=17.00
		SSD=1000.00
		SCD=494.00
		BLOCK=0
		WEDGE_ANGLE=0.00
		FIELD_INPLANE=100.00
		FIELD_CROSSPLANE=100.00
		FIELD_TYPE=RECTANGULAR
		GANTRY=0.00
		GANTRY_UPRIGHT_POSITION=0.00
		GANTRY_ROTATION=CW
		COLL_ANGLE=0.00
		COLL_OFFSET_INPLANE=0.00
		COLL_OFFSET_CROSSPLANE=0.00
		SCAN_CURVETYPE=PDD
		SCAN_DEPTH=0.00
		SCAN_OFFAXIS_INPLANE=0.00
		SCAN_OFFAXIS_CROSSPLANE=0.00
		SCAN_ANGLE=0.00
		SCAN_DIAGONAL=NOT_DIAGONAL
		SCAN_DIRECTION=POSITIVE
		SCAN_COLOR=0
		MEAS_MEDIUM=water
		MEAS_TIME=0.00
		MEAS_UNIT=Relative dose
		DELAY_TIMES=20.00;0.00;150.00;0.00;400.00;0.00;20.00;0.00;150.00;0.00;400.00;0.00;20.00;0.00;150.00;0.00;400.00;0.00;10.00;0.50;150.00;0.00;270.00;0.00;10.00;0.50;150.00;0.00;270.00;0.00;10.00;0.50;150.00;0.00;270.00;0.00;10.00;0.50;150.00;0.00;270.00;0.00;20.00;0.00;150.00;0.00;400.00;0.00;10.00;0.50;150.00;0.00;270.00;0.00;10.00;0.50;150.00;0.00;270.00;0.00;10.00;0.50;150.00;0.00;270.00;0.00;20.00;0.00;150.00;0.00;400.00;0.00;20.00;0.00;150.00;0.00;400.00;0.00;20.00;0.00;150.00;0.00;400.00;0.00;10.00;0.50;150.00;0.00;270.00;0.00;10.00;0.50;150.00;0.00;270.00;0.00;10.00;0.50;150.00;0.00;270.00;0.00;10.00;0.50;150.00;0.00;270.00;0.00;20.00;0.00;150.00;0.00;400.00;0.00;10.00;0.50;150.00;0.00;270.00;0.00;10.00;0.50;150.00;0.00;270.00;0.00;10.00;0.50;150.00;0.00;270.00;0.00;
		BEGIN_DATA
			-0.50		5.7670E+001	10.000E+00
			0.11		5.9523E+001	10.000E+00
			0.62		6.2693E+001	10.000E+00
			1.14		6.7174E+001	10.000E+00
			1.65		7.2999E+001	10.000E+00
			2.16		7.8156E+001	10.000E+00
			2.67		8.3241E+001	10.000E+00
			3.19		8.8511E+001	10.000E+00
			3.70		9.2089E+001	10.000E+00
			4.20		9.5779E+001	10.000E+00
			4.70		9.8814E+001	10.000E+00
			5.19		1.0133E+002	10.000E+00
			5.70		1.0348E+002	10.000E+00
			6.23		1.0530E+002	10.000E+00
			6.74		1.0694E+002	10.000E+00
			7.24		1.0824E+002	10.000E+00
			7.75		1.1015E+002	10.000E+00
			8.26		1.1121E+002	10.000E+00
			8.76		1.1244E+002	10.000E+00
			9.26		1.1291E+002	10.000E+00
			9.77		1.1359E+002	10.000E+00
			10.27		1.1409E+002	10.000E+00
			10.78		1.1445E+002	10.000E+00
			11.29		1.1498E+002	10.000E+00
			11.80		1.1528E+002	10.000E+00
			12.30		1.1553E+002	10.000E+00
			12.82		1.1581E+002	10.000E+00
			13.32		1.1592E+002	10.000E+00
			13.82		1.1579E+002	10.000E+00
			14.35		1.1617E+002	10.000E+00
			14.86		1.1596E+002	10.000E+00
			15.37		1.1576E+002	10.000E+00
			15.88		1.1565E+002	10.000E+00
			16.40		1.1588E+002	10.000E+00
			16.92		1.1563E+002	10.000E+00
			17.42		1.1560E+002	10.000E+00
			17.94		1.1502E+002	10.000E+00
			18.47		1.1516E+002	10.000E+00
			18.97		1.1533E+002	10.000E+00
			19.47		1.1476E+002	10.000E+00
			19.96		1.1473E+002	10.000E+00
			20.48		1.1445E+002	10.000E+00
			21.00		1.1412E+002	10.000E+00
			21.51		1.1374E+002	10.000E+00
			22.02		1.1387E+002	10.000E+00
			22.54		1.1334E+002	10.000E+00
			23.04		1.1329E+002	10.000E+00
			23.56		1.1297E+002	10.000E+00
			24.05		1.1275E+002	10.000E+00
			24.55		1.1244E+002	10.000E+00
			25.07		1.1215E+002	10.000E+00
			25.58		1.1212E+002	10.000E+00
			26.08		1.1165E+002	10.000E+00
			26.57		1.1149E+002	10.000E+00
			27.07		1.1114E+002	10.000E+00
			27.57		1.1120E+002	10.000E+00
			28.08		1.1080E+002	10.000E+00
			28.61		1.1036E+002	10.000E+00
			29.12		1.0997E+002	10.000E+00
			29.62		1.1004E+002	10.000E+00
			30.13		1.0989E+002	10.000E+00
			30.65		1.0948E+002	10.000E+00
			31.17		1.0910E+002	10.000E+00
			31.67		1.0923E+002	10.000E+00
			32.15		1.0878E+002	10.000E+00
			32.66		1.0841E+002	10.000E+00
			33.19		1.0832E+002	10.000E+00
			33.69		1.0792E+002	10.000E+00
			34.19		1.0799E+002	10.000E+00
			34.70		1.0768E+002	10.000E+00
			35.19		1.0733E+002	10.000E+00
			35.69		1.0669E+002	10.000E+00
			36.22		1.0673E+002	10.000E+00
			36.72		1.0671E+002	10.000E+00
			37.23		1.0647E+002	10.000E+00
			37.75		1.0645E+002	10.000E+00
			38.26		1.0558E+002	10.000E+00
			38.78		1.0581E+002	10.000E+00
			39.27		1.0527E+002	10.000E+00
			39.77		1.0525E+002	10.000E+00
			40.30		1.0484E+002	10.000E+00
			40.81		1.0463E+002	10.000E+00
			41.30		1.0438E+002	10.000E+00
			41.80		1.0409E+002	10.000E+00
			42.29		1.0385E+002	10.000E+00
			42.79		1.0365E+002	10.000E+00
			43.31		1.0338E+002	10.000E+00
			43.83		1.0300E+002	10.000E+00
			44.34		1.0289E+002	10.000E+00
			44.85		1.0256E+002	10.000E+00
			45.35		1.0240E+002	10.000E+00
			45.86		1.0218E+002	10.000E+00
			46.37		1.0178E+002	10.000E+00
			46.88		1.0159E+002	10.000E+00
			47.37		1.0134E+002	10.000E+00
			47.86		1.0129E+002	10.000E+00
			48.40		1.0097E+002	10.000E+00
			48.92		1.0073E+002	10.000E+00
			49.42		1.0042E+002	10.000E+00
			49.92		1.0002E+002	10.000E+00
			50.40		9.9959E+001	10.000E+00
			50.91		9.9525E+001	10.000E+00
			51.42		9.9468E+001	10.000E+00
			51.91		9.9242E+001	10.000E+00
			52.45		9.9259E+001	10.000E+00
			52.96		9.8728E+001	10.000E+00
			53.44		9.8720E+001	10.000E+00
			53.94		9.8650E+001	10.000E+00
			54.45		9.8138E+001	10.000E+00
			54.95		9.7978E+001	10.000E+00
			55.46		9.7357E+001	10.000E+00
			55.98		9.7159E+001	10.000E+00
			56.49		9.7018E+001	10.000E+00
			57.00		9.6858E+001	10.000E+00
			57.51		9.6570E+001	10.000E+00
			58.01		9.6550E+001	10.000E+00
			58.54		9.5980E+001	10.000E+00
			59.04		9.5914E+001	10.000E+00
			59.55		9.5659E+001	10.000E+00
			60.07		9.5463E+001	10.000E+00
			60.57		9.5140E+001	10.000E+00
			61.08		9.5078E+001	10.000E+00
			61.60		9.4659E+001	10.000E+00
			62.11		9.4478E+001	10.000E+00
			62.61		9.4031E+001	10.000E+00
			63.12		9.4213E+001	10.000E+00
			63.61		9.4062E+001	10.000E+00
			64.10		9.3512E+001	10.000E+00
			64.61		9.3268E+001	10.000E+00
			65.12		9.2832E+001	10.000E+00
			65.62		9.2907E+001	10.000E+00
			66.16		9.2693E+001	10.000E+00
			66.67		9.2436E+001	10.000E+00
			67.17		9.1942E+001	10.000E+00
			67.68		9.1930E+001	10.000E+00
			68.18		9.1782E+001	10.000E+00
			68.67		9.1462E+001	10.000E+00
			69.18		9.1219E+001	10.000E+00
			69.69		9.0895E+001	10.000E+00
			70.18		9.0765E+001	10.000E+00
			70.69		9.0563E+001	10.000E+00
			71.21		9.0405E+001	10.000E+00
			71.72		9.0114E+001	10.000E+00
			72.23		8.9761E+001	10.000E+00
			72.75		8.9728E+001	10.000E+00
			73.26		8.9319E+001	10.000E+00
			73.77		8.9221E+001	10.000E+00
			74.28		8.8851E+001	10.000E+00
			74.78		8.8572E+001	10.000E+00
			75.28		8.8375E+001	10.000E+00
			75.79		8.8073E+001	10.000E+00
			76.32		8.7958E+001	10.000E+00
			76.83		8.7998E+001	10.000E+00
			77.32		8.7760E+001	10.000E+00
			77.81		8.7174E+001	10.000E+00
			78.31		8.7008E+001	10.000E+00
			78.83		8.6761E+001	10.000E+00
			79.36		8.6663E+001	10.000E+00
			79.85		8.6361E+001	10.000E+00
			80.34		8.6183E+001	10.000E+00
			80.84		8.5797E+001	10.000E+00
			81.36		8.5872E+001	10.000E+00
			81.86		8.5454E+001	10.000E+00
			82.38		8.5415E+001	10.000E+00
			82.89		8.5017E+001	10.000E+00
			83.38		8.5042E+001	10.000E+00
			83.91		8.4788E+001	10.000E+00
			84.42		8.4664E+001	10.000E+00
			84.93		8.4258E+001	10.000E+00
			85.44		8.3915E+001	10.000E+00
			85.95		8.3855E+001	10.000E+00
			86.47		8.3739E+001	10.000E+00
			86.97		8.3242E+001	10.000E+00
			87.47		8.3332E+001	10.000E+00
			87.98		8.2925E+001	10.000E+00
			88.49		8.2625E+001	10.000E+00
			89.01		8.2538E+001	10.000E+00
			89.51		8.2332E+001	10.000E+00
			90.02		8.2069E+001	10.000E+00
			90.54		8.1855E+001	10.000E+00
			91.04		8.1518E+001	10.000E+00
			91.55		8.1323E+001	10.000E+00
			92.06		8.1028E+001	10.000E+00
			92.57		8.0936E+001	10.000E+00
			93.07		8.0890E+001	10.000E+00
			93.55		8.0568E+001	10.000E+00
			94.06		8.0318E+001	10.000E+00
			94.60		8.0067E+001	10.000E+00
			95.11		7.9736E+001	10.000E+00
			95.59		7.9774E+001	10.000E+00
			96.09		7.9606E+001	10.000E+00
			96.61		7.9238E+001	10.000E+00
			97.12		7.8905E+001	10.000E+00
			97.62		7.8942E+001	10.000E+00
			98.13		7.8913E+001	10.000E+00
			98.62		7.8438E+001	10.000E+00
			99.13		7.8165E+001	10.000E+00
			99.66		7.7845E+001	10.000E+00
			100.17		7.7990E+001	10.000E+00
			100.67		7.7546E+001	10.000E+00
			101.17		7.7456E+001	10.000E+00
			101.66		7.7273E+001	10.000E+00
			102.17		7.6839E+001	10.000E+00
			102.69		7.6728E+001	10.000E+00
			103.20		7.6695E+001	10.000E+00
			103.69		7.6494E+001	10.000E+00
			104.20		7.6142E+001	10.000E+00
			104.73		7.5894E+001	10.000E+00
			105.25		7.5571E+001	10.000E+00
			105.74		7.5464E+001	10.000E+00
			106.26		7.5314E+001	10.000E+00
			106.77		7.5267E+001	10.000E+00
			107.28		7.4989E+001	10.000E+00
			107.80		7.4694E+001	10.000E+00
			108.31		7.4523E+001	10.000E+00
			108.81		7.4727E+001	10.000E+00
			109.32		7.4096E+001	10.000E+00
			109.82		7.3948E+001	10.000E+00
			110.30		7.3603E+001	10.000E+00
			110.80		7.3521E+001	10.000E+00
			111.32		7.3325E+001	10.000E+00
			111.84		7.3256E+001	10.000E+00
			112.37		7.3178E+001	10.000E+00
			112.90		7.2878E+001	10.000E+00
			113.44		7.2638E+001	10.000E+00
			113.96		7.2409E+001	10.000E+00
			114.44		7.2151E+001	10.000E+00
			114.89		7.2008E+001	10.000E+00
			115.28		7.1791E+001	10.000E+00
			115.73		7.1643E+001	10.000E+00
			116.19		7.1695E+001	10.000E+00
			116.72		7.1465E+001	10.000E+00
			117.28		7.1109E+001	10.000E+00
			117.89		7.1028E+001	10.000E+00
			118.59		7.0581E+001	10.000E+00
			119.49		7.0268E+001	10.000E+00
			120.00		7.0035E+001	10.000E+00
		END_DATA
	END_SCAN   1
END_SCAN_DATA
