BEGIN_SCAN_DATA
	FORMAT=CC-Export V1.9
	FILE_CREATION_DATE=11-aug-2015 16:03:11
	LAST_MODIFIED=11-aug-2015 16:03:11
	BEGIN_SCAN   1
		TASK_NAME=tba PDD Profiles
		PROGRAM=BistroMath.exe v2.80 alpha (build 443)
		MEAS_DATE=11-aug-2015 19:38:51
		LINAC=U15
		MODALITY=X
		ISOCENTER=1435.0
		INPLANE_AXIS=Y
		CROSSPLANE_AXIS=X
		DEPTH_AXIS=Z
		INPLANE_AXIS_DIR=GUN_TARGET
		CROSSPLANE_AXIS_DIR=LEFT_RIGHT
		DEPTH_AXIS_DIR=UP_DOWN
		ENERGY=6.00
		NOMINAL_DMAX=17.00
		SSD=1000.00
		SCD=494.00
		BLOCK=0
		WEDGE_ANGLE=0.00
		FIELD_INPLANE=100.00
		FIELD_CROSSPLANE=100.00
		FIELD_TYPE=RECTANGULAR
		GANTRY=0.00
		GANTRY_UPRIGHT_POSITION=0.00
		GANTRY_ROTATION=CW
		COLL_ANGLE=0.00
		COLL_OFFSET_INPLANE=0.00
		COLL_OFFSET_CROSSPLANE=0.00
		RANGE_FIELD=AUTO
		RANGE_REFERENCE=AUTO
		DETECTOR=THIMBLE_CHAMBER
		DETECTOR_SUBCODE=FLEX
		DETECTOR_RADIUS=3.00
		DETECTOR_SN=0
		DETECTOR_CALIBRATION=1.00
		DETECTOR_IS_CALIBRATED=0
		DETECTOR_HV=300.00
		DETECTOR_REFERENCE=THIMBLE_CHAMBER
		DETECTOR_REFERENCE_SUBCODE=FLEX
		DETECTOR_REFERENCE_RADIUS=3.00
		DETECTOR_REFERENCE_SN=0
		DETECTOR_REFERENCE_CALIBRATION=1.00
		DETECTOR_REFERENCE_IS_CALIBRATED=0
		DETECTOR_REFERENCE_HV=300.00
		REF_FIELD_DEPTH=100.00
		REF_FIELD_DEFINED=ISOCENTER
		REF_FIELD_INPLANE=100.00
		REF_FIELD_CROSSPLANE=100.00
		REF_OVERSCAN_FACTOR=1.00
		MEAS_PRESET=REFERENCE_DOSEMETER
		PRESSURE=1013.25
		TEMPERATURE=22.00
		NORM_TEMPERATURE=22.00
		CORRECTION_FACTOR=1.00
		EXPECTED_MAX_DOSE_RATE=6.00
		GUID={BAD91BB1-133D-4a50-8F3D-2DCE43AA789C}
		DRAG_AND_DROP_STATUS=0
		SCAN_CURVETYPE=PDD
		SCAN_DEPTH=0.00
		SCAN_OFFAXIS_INPLANE=0.00
		SCAN_OFFAXIS_CROSSPLANE=0.00
		SCAN_ANGLE=0.00
		SCAN_DIAGONAL=NOT_DIAGONAL
		SCAN_DIRECTION=POSITIVE
		SCAN_COLOR=0
		MEAS_MEDIUM=water
		MEAS_TIME=0.00
		MEAS_UNIT=Relative dose
		DELAY_TIMES=20.00;0.00;150.00;0.00;400.00;0.00;20.00;0.00;150.00;0.00;400.00;0.00;20.00;0.00;150.00;0.00;400.00;0.00;10.00;0.50;150.00;0.00;270.00;0.00;10.00;0.50;150.00;0.00;270.00;0.00;10.00;0.50;150.00;0.00;270.00;0.00;10.00;0.50;150.00;0.00;270.00;0.00;20.00;0.00;150.00;0.00;400.00;0.00;10.00;0.50;150.00;0.00;270.00;0.00;10.00;0.50;150.00;0.00;270.00;0.00;10.00;0.50;150.00;0.00;270.00;0.00;20.00;0.00;150.00;0.00;400.00;0.00;20.00;0.00;150.00;0.00;400.00;0.00;20.00;0.00;150.00;0.00;400.00;0.00;10.00;0.50;150.00;0.00;270.00;0.00;10.00;0.50;150.00;0.00;270.00;0.00;10.00;0.50;150.00;0.00;270.00;0.00;10.00;0.50;150.00;0.00;270.00;0.00;20.00;0.00;150.00;0.00;400.00;0.00;10.00;0.50;150.00;0.00;270.00;0.00;10.00;0.50;150.00;0.00;270.00;0.00;10.00;0.50;150.00;0.00;270.00;0.00;20.00;0.00;150.00;0.00;400.00;0.00;20.00;0.00;150.00;0.00;400.00;0.00;20.00;0.00;150.00;0.00;400.00;0.00;10.00;0.50;150.00;0.00;270.00;0.00;10.00;0.50;150.00;0.00;270.00;0.00;10.00;0.50;150.00;0.00;270.00;0.00;10.00;0.50;150.00;0.00;270.00;0.00;20.00;0.00;150.00;0.00;400.00;0.00;10.00;0.50;150.00;0.00;270.00;0.00;10.00;0.50;150.00;0.00;270.00;0.00;10.00;0.50;150.00;0.00;270.00;0.00;20.00;0.00;150.00;0.00;400.00;0.00;20.00;0.00;150.00;0.00;400.00;0.00;20.00;0.00;150.00;0.00;400.00;0.00;10.00;0.50;150.00;0.00;270.00;0.00;10.00;0.50;150.00;0.00;270.00;0.00;10.00;0.50;150.00;0.00;270.00;0.00;10.00;0.50;150.00;0.00;270.00;0.00;20.00;0.00;150.00;0.00;400.00;0.00;10.00;0.50;150.00;0.00;270.00;0.00;10.00;0.50;150.00;0.00;270.00;0.00;10.00;0.50;150.00;0.00;270.00;0.00;20.00;0.00;150.00;0.00;400.00;0.00;20.00;0.00;150.00;0.00;400.00;0.00;20.00;0.00;150.00;0.00;400.00;0.00;10.00;0.50;150.00;0.00;270.00;0.00;10.00;0.50;150.00;0.00;270.00;0.00;10.00;0.50;150.00;0.00;270.00;0.00;10.00;0.50;150.00;0.00;270.00;0.00;20.00;0.00;150.00;0.00;400.00;0.00;10.00;0.50;150.00;0.00;270.00;0.00;10.00;0.50;150.00;0.00;270.00;0.00;10.00;0.50;150.00;0.00;270.00;0.00;
		BEGIN_DATA
			-0.50		5.7670E+001	10.000E+00
			0.11		5.9523E+001	10.000E+00
			0.62		6.2693E+001	10.000E+00
			1.14		6.7174E+001	10.000E+00
			1.65		7.2999E+001	10.000E+00
			2.16		7.8156E+001	10.000E+00
			2.67		8.3241E+001	10.000E+00
			3.19		8.8511E+001	10.000E+00
			3.70		9.2089E+001	10.000E+00
			4.20		9.5779E+001	10.000E+00
			4.70		9.8814E+001	10.000E+00
			5.19		1.0133E+002	10.000E+00
			5.70		1.0348E+002	10.000E+00
			6.23		1.0530E+002	10.000E+00
			6.74		1.0694E+002	10.000E+00
			7.24		1.0824E+002	10.000E+00
			7.75		1.1015E+002	10.000E+00
			8.26		1.1121E+002	10.000E+00
			8.76		1.1244E+002	10.000E+00
			9.26		1.1291E+002	10.000E+00
			9.77		1.1359E+002	10.000E+00
			10.27		1.1409E+002	10.000E+00
			10.78		1.1445E+002	10.000E+00
			11.29		1.1498E+002	10.000E+00
			11.80		1.1528E+002	10.000E+00
			12.30		1.1553E+002	10.000E+00
			12.82		1.1581E+002	10.000E+00
			13.32		1.1592E+002	10.000E+00
			13.82		1.1579E+002	10.000E+00
			14.35		1.1617E+002	10.000E+00
			14.86		1.1596E+002	10.000E+00
			15.37		1.1576E+002	10.000E+00
			15.88		1.1565E+002	10.000E+00
			16.40		1.1588E+002	10.000E+00
			16.92		1.1563E+002	10.000E+00
			17.42		1.1560E+002	10.000E+00
			17.94		1.1502E+002	10.000E+00
			18.47		1.1516E+002	10.000E+00
			18.97		1.1533E+002	10.000E+00
			19.47		1.1476E+002	10.000E+00
			19.96		1.1473E+002	10.000E+00
			20.48		1.1445E+002	10.000E+00
			21.00		1.1412E+002	10.000E+00
			21.51		1.1374E+002	10.000E+00
			22.02		1.1387E+002	10.000E+00
			22.54		1.1334E+002	10.000E+00
			23.04		1.1329E+002	10.000E+00
			23.56		1.1297E+002	10.000E+00
			24.05		1.1275E+002	10.000E+00
			24.55		1.1244E+002	10.000E+00
			25.07		1.1215E+002	10.000E+00
			25.58		1.1212E+002	10.000E+00
			26.08		1.1165E+002	10.000E+00
			26.57		1.1149E+002	10.000E+00
			27.07		1.1114E+002	10.000E+00
			27.57		1.1120E+002	10.000E+00
			28.08		1.1080E+002	10.000E+00
			28.61		1.1036E+002	10.000E+00
			29.12		1.0997E+002	10.000E+00
			29.62		1.1004E+002	10.000E+00
			30.13		1.0989E+002	10.000E+00
			30.65		1.0948E+002	10.000E+00
			31.17		1.0910E+002	10.000E+00
			31.67		1.0923E+002	10.000E+00
			32.15		1.0878E+002	10.000E+00
			32.66		1.0841E+002	10.000E+00
			33.19		1.0832E+002	10.000E+00
			33.69		1.0792E+002	10.000E+00
			34.19		1.0799E+002	10.000E+00
			34.70		1.0768E+002	10.000E+00
			35.19		1.0733E+002	10.000E+00
			35.69		1.0669E+002	10.000E+00
			36.22		1.0673E+002	10.000E+00
			36.72		1.0671E+002	10.000E+00
			37.23		1.0647E+002	10.000E+00
			37.75		1.0645E+002	10.000E+00
			38.26		1.0558E+002	10.000E+00
			38.78		1.0581E+002	10.000E+00
			39.27		1.0527E+002	10.000E+00
			39.77		1.0525E+002	10.000E+00
			40.30		1.0484E+002	10.000E+00
			40.81		1.0463E+002	10.000E+00
			41.30		1.0438E+002	10.000E+00
			41.80		1.0409E+002	10.000E+00
			42.29		1.0385E+002	10.000E+00
			42.79		1.0365E+002	10.000E+00
			43.31		1.0338E+002	10.000E+00
			43.83		1.0300E+002	10.000E+00
			44.34		1.0289E+002	10.000E+00
			44.85		1.0256E+002	10.000E+00
			45.35		1.0240E+002	10.000E+00
			45.86		1.0218E+002	10.000E+00
			46.37		1.0178E+002	10.000E+00
			46.88		1.0159E+002	10.000E+00
			47.37		1.0134E+002	10.000E+00
			47.86		1.0129E+002	10.000E+00
			48.40		1.0097E+002	10.000E+00
			48.92		1.0073E+002	10.000E+00
			49.42		1.0042E+002	10.000E+00
			49.92		1.0002E+002	10.000E+00
			50.40		9.9887E+001	10.000E+00
			50.91		9.9576E+001	10.000E+00
			51.42		9.9497E+001	10.000E+00
			51.91		9.9195E+001	10.000E+00
			52.45		9.9111E+001	10.000E+00
			52.96		9.8766E+001	10.000E+00
			53.44		9.8554E+001	10.000E+00
			53.94		9.8480E+001	10.000E+00
			54.45		9.8026E+001	10.000E+00
			54.95		9.7835E+001	10.000E+00
			55.46		9.7461E+001	10.000E+00
			55.98		9.7203E+001	10.000E+00
			56.49		9.6994E+001	10.000E+00
			57.00		9.6776E+001	10.000E+00
			57.51		9.6508E+001	10.000E+00
			58.01		9.6499E+001	10.000E+00
			58.54		9.6090E+001	10.000E+00
			59.04		9.5873E+001	10.000E+00
			59.55		9.5734E+001	10.000E+00
			60.07		9.5508E+001	10.000E+00
			60.57		9.5134E+001	10.000E+00
			61.08		9.5000E+001	10.000E+00
			61.60		9.4668E+001	10.000E+00
			62.11		9.4516E+001	10.000E+00
			62.61		9.4130E+001	10.000E+00
			63.12		9.4129E+001	10.000E+00
			63.61		9.4084E+001	10.000E+00
			64.10		9.3625E+001	10.000E+00
			64.61		9.3268E+001	10.000E+00
			65.12		9.2961E+001	10.000E+00
			65.62		9.2882E+001	10.000E+00
			66.16		9.2647E+001	10.000E+00
			66.67		9.2378E+001	10.000E+00
			67.17		9.2061E+001	10.000E+00
			67.68		9.1966E+001	10.000E+00
			68.18		9.1813E+001	10.000E+00
			68.67		9.1509E+001	10.000E+00
			69.18		9.1212E+001	10.000E+00
			69.69		9.0856E+001	10.000E+00
			70.18		9.0662E+001	10.000E+00
			70.69		9.0479E+001	10.000E+00
			71.21		9.0328E+001	10.000E+00
			71.72		9.0185E+001	10.000E+00
			72.23		8.9759E+001	10.000E+00
			72.75		8.9630E+001	10.000E+00
			73.26		8.9274E+001	10.000E+00
			73.77		8.9144E+001	10.000E+00
			74.28		8.8869E+001	10.000E+00
			74.78		8.8560E+001	10.000E+00
			75.28		8.8363E+001	10.000E+00
			75.79		8.8160E+001	10.000E+00
			76.32		8.7986E+001	10.000E+00
			76.83		8.7945E+001	10.000E+00
			77.32		8.7735E+001	10.000E+00
			77.81		8.7319E+001	10.000E+00
			78.31		8.7122E+001	10.000E+00
			78.83		8.6819E+001	10.000E+00
			79.36		8.6604E+001	10.000E+00
			79.85		8.6265E+001	10.000E+00
			80.34		8.6017E+001	10.000E+00
			80.84		8.5809E+001	10.000E+00
			81.36		8.5777E+001	10.000E+00
			81.86		8.5437E+001	10.000E+00
			82.38		8.5331E+001	10.000E+00
			82.89		8.5013E+001	10.000E+00
			83.38		8.4865E+001	10.000E+00
			83.91		8.4708E+001	10.000E+00
			84.42		8.4569E+001	10.000E+00
			84.93		8.4198E+001	10.000E+00
			85.44		8.3921E+001	10.000E+00
			85.95		8.3805E+001	10.000E+00
			86.47		8.3621E+001	10.000E+00
			86.97		8.3254E+001	10.000E+00
			87.47		8.3225E+001	10.000E+00
			87.98		8.2944E+001	10.000E+00
			88.49		8.2695E+001	10.000E+00
			89.01		8.2539E+001	10.000E+00
			89.51		8.2318E+001	10.000E+00
			90.02		8.2086E+001	10.000E+00
			90.54		8.1877E+001	10.000E+00
			91.04		8.1504E+001	10.000E+00
			91.55		8.1293E+001	10.000E+00
			92.06		8.1094E+001	10.000E+00
			92.57		8.1019E+001	10.000E+00
			93.07		8.0924E+001	10.000E+00
			93.55		8.0633E+001	10.000E+00
			94.06		8.0432E+001	10.000E+00
			94.60		8.0159E+001	10.000E+00
			95.11		7.9861E+001	10.000E+00
			95.59		7.9798E+001	10.000E+00
			96.09		7.9529E+001	10.000E+00
			96.61		7.9180E+001	10.000E+00
			97.12		7.8913E+001	10.000E+00
			97.62		7.8873E+001	10.000E+00
			98.13		7.8814E+001	10.000E+00
			98.62		7.8490E+001	10.000E+00
			99.13		7.8232E+001	10.000E+00
			99.66		7.7968E+001	10.000E+00
			100.17		7.7932E+001	10.000E+00
			100.67		7.7583E+001	10.000E+00
			101.17		7.7428E+001	10.000E+00
			101.66		7.7254E+001	10.000E+00
			102.17		7.6944E+001	10.000E+00
			102.69		7.6764E+001	10.000E+00
			103.20		7.6604E+001	10.000E+00
			103.69		7.6427E+001	10.000E+00
			104.20		7.6221E+001	10.000E+00
			104.73		7.5978E+001	10.000E+00
			105.25		7.5708E+001	10.000E+00
			105.74		7.5550E+001	10.000E+00
			106.26		7.5333E+001	10.000E+00
			106.77		7.5217E+001	10.000E+00
			107.28		7.4972E+001	10.000E+00
			107.80		7.4802E+001	10.000E+00
			108.31		7.4564E+001	10.000E+00
			108.81		7.4607E+001	10.000E+00
			109.32		7.4189E+001	10.000E+00
			109.82		7.3999E+001	10.000E+00
			110.30		7.3693E+001	10.000E+00
			110.80		7.3542E+001	10.000E+00
			111.32		7.3332E+001	10.000E+00
			111.84		7.3229E+001	10.000E+00
			112.37		7.3126E+001	10.000E+00
			112.90		7.2860E+001	10.000E+00
			113.44		7.2639E+001	10.000E+00
			113.96		7.2468E+001	10.000E+00
			114.44		7.2188E+001	10.000E+00
			114.89		7.2104E+001	10.000E+00
			115.28		7.1983E+001	10.000E+00
			115.73		7.1768E+001	10.000E+00
			116.19		7.1644E+001	10.000E+00
			116.72		7.1419E+001	10.000E+00
			117.28		7.1154E+001	10.000E+00
			117.89		7.0939E+001	10.000E+00
			118.59		7.0577E+001	10.000E+00
			119.49		7.0333E+001	10.000E+00
			120.00		7.0104E+001	10.000E+00
			121.21		6.9506E+001	10.000E+00
			121.72		6.9421E+001	10.000E+00
			122.23		6.9138E+001	10.000E+00
			122.73		6.9018E+001	10.000E+00
			123.26		6.8927E+001	10.000E+00
			123.77		6.8840E+001	10.000E+00
			124.27		6.8625E+001	10.000E+00
			124.79		6.8401E+001	10.000E+00
			125.29		6.8270E+001	10.000E+00
			125.79		6.7822E+001	10.000E+00
			126.29		6.7812E+001	10.000E+00
			126.81		6.7623E+001	10.000E+00
			127.30		6.7507E+001	10.000E+00
			127.81		6.7221E+001	10.000E+00
			128.30		6.7063E+001	10.000E+00
			128.80		6.7107E+001	10.000E+00
			129.33		6.6720E+001	10.000E+00
			129.85		6.6513E+001	10.000E+00
			130.35		6.6401E+001	10.000E+00
			130.87		6.6158E+001	10.000E+00
			131.36		6.5956E+001	10.000E+00
			131.87		6.5854E+001	10.000E+00
			132.38		6.5712E+001	10.000E+00
			132.89		6.5424E+001	10.000E+00
			133.37		6.5218E+001	10.000E+00
			133.88		6.5218E+001	10.000E+00
			134.38		6.4963E+001	10.000E+00
			134.90		6.4695E+001	10.000E+00
			135.42		6.4623E+001	10.000E+00
			135.94		6.4359E+001	10.000E+00
			136.42		6.4195E+001	10.000E+00
			136.93		6.4185E+001	10.000E+00
			137.45		6.3874E+001	10.000E+00
			137.95		6.3695E+001	10.000E+00
			138.47		6.3504E+001	10.000E+00
			138.98		6.3453E+001	10.000E+00
			139.48		6.3210E+001	10.000E+00
			139.99		6.2984E+001	10.000E+00
			140.48		6.2868E+001	10.000E+00
			140.98		6.2737E+001	10.000E+00
			141.50		6.2653E+001	10.000E+00
			142.02		6.2203E+001	10.000E+00
			142.52		6.2111E+001	10.000E+00
			143.03		6.1977E+001	10.000E+00
			143.54		6.1958E+001	10.000E+00
			144.05		6.1692E+001	10.000E+00
			144.56		6.1450E+001	10.000E+00
			145.06		6.1410E+001	10.000E+00
			145.55		6.1254E+001	10.000E+00
			146.03		6.1146E+001	10.000E+00
			146.57		6.0852E+001	10.000E+00
			147.09		6.0749E+001	10.000E+00
			147.60		6.0359E+001	10.000E+00
			148.11		6.0403E+001	10.000E+00
			148.63		6.0121E+001	10.000E+00
			149.14		6.0134E+001	10.000E+00
			149.65		6.0063E+001	10.000E+00
			150.16		5.9808E+001	10.000E+00
			150.67		5.9646E+001	10.000E+00
			151.17		5.9385E+001	10.000E+00
			151.68		5.9174E+001	10.000E+00
			152.20		5.9114E+001	10.000E+00
			152.71		5.8974E+001	10.000E+00
			153.21		5.8713E+001	10.000E+00
			153.71		5.8543E+001	10.000E+00
			154.21		5.8477E+001	10.000E+00
			154.73		5.8187E+001	10.000E+00
			155.24		5.8197E+001	10.000E+00
			155.74		5.7883E+001	10.000E+00
			156.25		5.7814E+001	10.000E+00
			156.75		5.7623E+001	10.000E+00
			157.24		5.7416E+001	10.000E+00
			157.75		5.7220E+001	10.000E+00
			158.26		5.7169E+001	10.000E+00
			158.76		5.6993E+001	10.000E+00
			159.27		5.6870E+001	10.000E+00
			159.77		5.6601E+001	10.000E+00
			160.29		5.6468E+001	10.000E+00
			160.79		5.6360E+001	10.000E+00
			161.30		5.6233E+001	10.000E+00
			161.79		5.6045E+001	10.000E+00
			162.30		5.5885E+001	10.000E+00
			162.79		5.5746E+001	10.000E+00
			163.28		5.5619E+001	10.000E+00
			163.79		5.5461E+001	10.000E+00
			164.30		5.5331E+001	10.000E+00
			164.82		5.5270E+001	10.000E+00
			165.34		5.4999E+001	10.000E+00
			165.83		5.4831E+001	10.000E+00
			166.33		5.4713E+001	10.000E+00
			166.85		5.4656E+001	10.000E+00
			167.35		5.4340E+001	10.000E+00
			167.85		5.4217E+001	10.000E+00
			168.36		5.4064E+001	10.000E+00
			168.88		5.4009E+001	10.000E+00
			169.38		5.3848E+001	10.000E+00
			169.89		5.3593E+001	10.000E+00
			170.40		5.3387E+001	10.000E+00
			170.89		5.3439E+001	10.000E+00
			171.40		5.3251E+001	10.000E+00
			171.90		5.3050E+001	10.000E+00
			172.40		5.2837E+001	10.000E+00
			172.92		5.2867E+001	10.000E+00
			173.41		5.2731E+001	10.000E+00
			173.91		5.2444E+001	10.000E+00
			174.44		5.2461E+001	10.000E+00
			174.95		5.2264E+001	10.000E+00
			175.45		5.2151E+001	10.000E+00
			175.94		5.1992E+001	10.000E+00
			176.46		5.1904E+001	10.000E+00
			176.97		5.1676E+001	10.000E+00
			177.46		5.1515E+001	10.000E+00
			177.96		5.1347E+001	10.000E+00
			178.49		5.1149E+001	10.000E+00
			179.00		5.1143E+001	10.000E+00
			179.50		5.0949E+001	10.000E+00
			180.01		5.0862E+001	10.000E+00
			180.52		5.0796E+001	10.000E+00
			181.03		5.0559E+001	10.000E+00
			181.54		5.0425E+001	10.000E+00
			182.04		5.0358E+001	10.000E+00
			182.53		5.0248E+001	10.000E+00
			183.02		4.9973E+001	10.000E+00
			183.54		4.9898E+001	10.000E+00
			184.06		4.9750E+001	10.000E+00
			184.57		4.9591E+001	10.000E+00
			185.09		4.9398E+001	10.000E+00
			185.59		4.9316E+001	10.000E+00
			186.10		4.9225E+001	10.000E+00
			186.59		4.9051E+001	10.000E+00
			187.09		4.8891E+001	10.000E+00
			187.62		4.8831E+001	10.000E+00
			188.13		4.8681E+001	10.000E+00
			188.62		4.8707E+001	10.000E+00
			189.12		4.8671E+001	10.000E+00
			189.63		4.8257E+001	10.000E+00
			190.16		4.8150E+001	10.000E+00
			190.67		4.7996E+001	10.000E+00
			191.17		4.7901E+001	10.000E+00
			191.68		4.7823E+001	10.000E+00
			192.20		4.7612E+001	10.000E+00
			192.68		4.7558E+001	10.000E+00
			193.18		4.7333E+001	10.000E+00
			193.70		4.7238E+001	10.000E+00
			194.21		4.7091E+001	10.000E+00
			194.71		4.7120E+001	10.000E+00
			195.21		4.6848E+001	10.000E+00
			195.72		4.6638E+001	10.000E+00
			196.23		4.6546E+001	10.000E+00
			196.74		4.6491E+001	10.000E+00
			197.23		4.6328E+001	10.000E+00
			197.73		4.6278E+001	10.000E+00
			198.25		4.6087E+001	10.000E+00
			198.75		4.6026E+001	10.000E+00
			199.25		4.5908E+001	10.000E+00
			199.74		4.5751E+001	10.000E+00
			200.24		4.5648E+001	10.000E+00
			200.76		4.5516E+001	10.000E+00
			201.27		4.5371E+001	10.000E+00
			201.79		4.5329E+001	10.000E+00
			202.28		4.5127E+001	10.000E+00
			202.79		4.4888E+001	10.000E+00
			203.29		4.4954E+001	10.000E+00
			203.78		4.4856E+001	10.000E+00
			204.27		4.4549E+001	10.000E+00
			204.77		4.4437E+001	10.000E+00
			205.28		4.4311E+001	10.000E+00
			205.77		4.4231E+001	10.000E+00
			206.27		4.4211E+001	10.000E+00
			206.76		4.4095E+001	10.000E+00
			207.27		4.3990E+001	10.000E+00
			207.80		4.3640E+001	10.000E+00
			208.31		4.3561E+001	10.000E+00
			208.81		4.3471E+001	10.000E+00
			209.31		4.3508E+001	10.000E+00
			209.81		4.3339E+001	10.000E+00
			210.33		4.3323E+001	10.000E+00
			210.82		4.3061E+001	10.000E+00
			211.32		4.2997E+001	10.000E+00
			211.82		4.2872E+001	10.000E+00
			212.34		4.2824E+001	10.000E+00
			212.85		4.2726E+001	10.000E+00
			213.37		4.2604E+001	10.000E+00
			213.87		4.2376E+001	10.000E+00
			214.39		4.2317E+001	10.000E+00
			214.89		4.2093E+001	10.000E+00
			215.39		4.2117E+001	10.000E+00
			215.88		4.2028E+001	10.000E+00
			216.37		4.1844E+001	10.000E+00
			216.88		4.1733E+001	10.000E+00
			217.38		4.1598E+001	10.000E+00
			217.89		4.1512E+001	10.000E+00
			218.41		4.1381E+001	10.000E+00
			218.92		4.1198E+001	10.000E+00
			219.41		4.1274E+001	10.000E+00
			219.91		4.1075E+001	10.000E+00
			220.44		4.1005E+001	10.000E+00
			220.96		4.0856E+001	10.000E+00
			221.44		4.0778E+001	10.000E+00
			221.94		4.0616E+001	10.000E+00
			222.45		4.0600E+001	10.000E+00
			222.95		4.0436E+001	10.000E+00
			223.48		4.0160E+001	10.000E+00
			223.99		4.0065E+001	10.000E+00
			224.48		4.0084E+001	10.000E+00
			224.98		3.9972E+001	10.000E+00
			225.48		3.9883E+001	10.000E+00
			225.98		3.9710E+001	10.000E+00
			226.49		3.9643E+001	10.000E+00
			226.99		3.9552E+001	10.000E+00
			227.49		3.9437E+001	10.000E+00
			228.01		3.9335E+001	10.000E+00
			228.51		3.9174E+001	10.000E+00
			229.01		3.9048E+001	10.000E+00
			229.52		3.8950E+001	10.000E+00
			230.01		3.8961E+001	10.000E+00
			230.51		3.8928E+001	10.000E+00
			231.01		3.8747E+001	10.000E+00
			231.52		3.8669E+001	10.000E+00
			232.02		3.8485E+001	10.000E+00
			232.52		3.8316E+001	10.000E+00
			233.04		3.8260E+001	10.000E+00
			233.56		3.8134E+001	10.000E+00
			234.06		3.8020E+001	10.000E+00
			234.56		3.7949E+001	10.000E+00
			235.08		3.7712E+001	10.000E+00
			235.60		3.7756E+001	10.000E+00
			236.10		3.7590E+001	10.000E+00
			236.60		3.7557E+001	10.000E+00
			237.12		3.7425E+001	10.000E+00
			237.62		3.7310E+001	10.000E+00
			238.13		3.7221E+001	10.000E+00
			238.63		3.7183E+001	10.000E+00
			239.12		3.7116E+001	10.000E+00
			239.64		3.6885E+001	10.000E+00
			240.16		3.6865E+001	10.000E+00
			240.66		3.6600E+001	10.000E+00
			241.17		3.6638E+001	10.000E+00
			241.69		3.6519E+001	10.000E+00
			242.20		3.6426E+001	10.000E+00
			242.69		3.6283E+001	10.000E+00
			243.21		3.6228E+001	10.000E+00
			243.72		3.6176E+001	10.000E+00
			244.21		3.5945E+001	10.000E+00
			244.72		3.6097E+001	10.000E+00
			245.25		3.5826E+001	10.000E+00
			245.76		3.5820E+001	10.000E+00
			246.26		3.5787E+001	10.000E+00
			246.76		3.5746E+001	10.000E+00
			247.24		3.5510E+001	10.000E+00
			247.74		3.5307E+001	10.000E+00
			248.23		3.5270E+001	10.000E+00
			248.73		3.5078E+001	10.000E+00
			249.26		3.5095E+001	10.000E+00
			249.76		3.4973E+001	10.000E+00
			250.26		3.5026E+001	10.000E+00
			250.76		3.4915E+001	10.000E+00
			251.28		3.4847E+001	10.000E+00
			251.78		3.4775E+001	10.000E+00
			252.28		3.4707E+001	10.000E+00
			252.78		3.4469E+001	10.000E+00
			253.30		3.4380E+001	10.000E+00
			253.81		3.4202E+001	10.000E+00
			254.32		3.4119E+001	10.000E+00
			254.82		3.4007E+001	10.000E+00
			255.35		3.4006E+001	10.000E+00
			255.85		3.3879E+001	10.000E+00
			256.35		3.3868E+001	10.000E+00
			256.87		3.3647E+001	10.000E+00
			257.36		3.3709E+001	10.000E+00
			257.87		3.3513E+001	10.000E+00
			258.38		3.3371E+001	10.000E+00
			258.87		3.3342E+001	10.000E+00
			259.37		3.3150E+001	10.000E+00
			259.88		3.2991E+001	10.000E+00
			260.39		3.2962E+001	10.000E+00
			260.90		3.3006E+001	10.000E+00
			261.41		3.2937E+001	10.000E+00
			261.92		3.2801E+001	10.000E+00
			262.45		3.2610E+001	10.000E+00
			262.96		3.2682E+001	10.000E+00
			263.47		3.2549E+001	10.000E+00
			263.98		3.2463E+001	10.000E+00
			264.48		3.2450E+001	10.000E+00
			264.98		3.2396E+001	10.000E+00
			265.48		3.2157E+001	10.000E+00
			265.95		3.2247E+001	10.000E+00
			266.50		3.2130E+001	10.000E+00
			267.00		3.1899E+001	10.000E+00
			267.51		3.1811E+001	10.000E+00
			268.00		3.1813E+001	10.000E+00
			268.50		3.1791E+001	10.000E+00
			269.00		3.1654E+001	10.000E+00
			269.49		3.1621E+001	10.000E+00
			270.00		3.1426E+001	10.000E+00
			270.52		3.1501E+001	10.000E+00
			271.04		3.1366E+001	10.000E+00
			271.53		3.1193E+001	10.000E+00
			272.03		3.1099E+001	10.000E+00
			272.53		3.1111E+001	10.000E+00
			273.04		3.1004E+001	10.000E+00
			273.57		3.0823E+001	10.000E+00
			274.10		3.0740E+001	10.000E+00
			274.61		3.0696E+001	10.000E+00
			275.13		3.0614E+001	10.000E+00
			275.61		3.0457E+001	10.000E+00
			276.11		3.0395E+001	10.000E+00
			276.62		3.0308E+001	10.000E+00
			277.13		3.0223E+001	10.000E+00
			277.64		3.0252E+001	10.000E+00
			278.14		3.0050E+001	10.000E+00
			278.62		2.9988E+001	10.000E+00
			279.13		2.9900E+001	10.000E+00
			279.64		2.9908E+001	10.000E+00
			280.13		2.9835E+001	10.000E+00
			280.65		2.9681E+001	10.000E+00
			281.16		2.9584E+001	10.000E+00
			281.65		2.9577E+001	10.000E+00
			282.15		2.9481E+001	10.000E+00
			282.67		2.9406E+001	10.000E+00
			283.17		2.9310E+001	10.000E+00
			283.70		2.9207E+001	10.000E+00
			284.21		2.9109E+001	10.000E+00
			284.71		2.8987E+001	10.000E+00
			285.21		2.9026E+001	10.000E+00
			285.73		2.9058E+001	10.000E+00
			286.25		2.8848E+001	10.000E+00
			286.75		2.8861E+001	10.000E+00
			287.25		2.8663E+001	10.000E+00
			287.74		2.8663E+001	10.000E+00
			288.24		2.8515E+001	10.000E+00
			288.75		2.8462E+001	10.000E+00
			289.27		2.8460E+001	10.000E+00
			289.77		2.8330E+001	10.000E+00
			290.28		2.8167E+001	10.000E+00
			290.78		2.8013E+001	10.000E+00
			291.29		2.8019E+001	10.000E+00
			291.81		2.8007E+001	10.000E+00
			292.32		2.8020E+001	10.000E+00
			292.83		2.7942E+001	10.000E+00
			293.33		2.7772E+001	10.000E+00
			293.83		2.7759E+001	10.000E+00
			294.34		2.7538E+001	10.000E+00
			294.85		2.7466E+001	10.000E+00
			295.34		2.7436E+001	10.000E+00
			295.85		2.7324E+001	10.000E+00
			296.36		2.7335E+001	10.000E+00
			296.86		2.7322E+001	10.000E+00
			297.39		2.7218E+001	10.000E+00
			297.88		2.7135E+001	10.000E+00
			298.39		2.7124E+001	10.000E+00
			298.90		2.7009E+001	10.000E+00
			299.38		2.6854E+001	10.000E+00
			299.86		2.6874E+001	10.000E+00
			300.36		2.6760E+001	10.000E+00
			300.86		2.6683E+001	10.000E+00
			301.35		2.6673E+001	10.000E+00
			301.86		2.6611E+001	10.000E+00
			302.38		2.6570E+001	10.000E+00
			302.93		2.6413E+001	10.000E+00
			303.47		2.6396E+001	10.000E+00
			303.98		2.6395E+001	10.000E+00
			304.47		2.6132E+001	10.000E+00
			304.90		2.6057E+001	10.000E+00
			305.33		2.6117E+001	10.000E+00
			305.74		2.6021E+001	10.000E+00
			306.18		2.6023E+001	10.000E+00
			306.68		2.5982E+001	10.000E+00
			307.23		2.5741E+001	10.000E+00
			307.86		2.5840E+001	10.000E+00
			308.59		2.5655E+001	10.000E+00
			309.47		2.5485E+001	10.000E+00
			309.99		2.5541E+001	10.000E+00
			310.00		2.5541E+001	10.000E+00
		END_DATA
	END_SCAN   1
END_SCAN_DATA
