BEGIN_SCAN_DATA
	FORMAT=CC-Export V1.9
	FILE_CREATION_DATE=11-Aug-2015 16:03:11
	LAST_MODIFIED=11-Aug-2015 16:03:11
	BEGIN_SCAN   1
		TASK_NAME=tba PDD Profiles
		PROGRAM=BistroMath.exe v2.80 alpha (build 443)
		COMMENT=gantry 90, epom 0, origin isoc
		MEAS_DATE=11-Aug-2015 19:00:08
		LINAC=U15
		MODALITY=X
		ISOCENTER=1435.0
		INPLANE_AXIS=Y
		CROSSPLANE_AXIS=Z
		DEPTH_AXIS=X
		INPLANE_AXIS_DIR=GUN_TARGET
		CROSSPLANE_AXIS_DIR=LEFT_RIGHT
		DEPTH_AXIS_DIR=UP_DOWN
		ENERGY=6.00
		NOMINAL_DMAX=17.00
		SSD=677.00
		SCD=494.00
		BLOCK=0
		WEDGE_ANGLE=0.00
		FIELD_INPLANE=148.00
		FIELD_CROSSPLANE=148.00
		FIELD_TYPE=RECTANGULAR
		GANTRY=90.00
		GANTRY_UPRIGHT_POSITION=0.00
		GANTRY_ROTATION=CW
		COLL_ANGLE=0.00
		COLL_OFFSET_INPLANE=0.00
		COLL_OFFSET_CROSSPLANE=0.00
		SCAN_CURVETYPE=PDD
		SCAN_DEPTH=0.00
		SCAN_OFFAXIS_INPLANE=0.00
		SCAN_OFFAXIS_CROSSPLANE=0.00
		SCAN_ANGLE=0.00
		SCAN_DIAGONAL=NOT_DIAGONAL
		SCAN_DIRECTION=POSITIVE
		SCAN_COLOR=0
		MEAS_MEDIUM=water
		MEAS_TIME=0.00
		MEAS_UNIT=Relative dose
		DELAY_TIMES=20.00;0.00;150.00;0.00;400.00;0.00;20.00;0.00;150.00;0.00;400.00;0.00;20.00;0.00;150.00;0.00;400.00;0.00;10.00;0.50;150.00;0.00;270.00;0.00;10.00;0.50;150.00;0.00;270.00;0.00;10.00;0.50;150.00;0.00;270.00;0.00;10.00;0.50;150.00;0.00;270.00;0.00;20.00;0.00;150.00;0.00;400.00;0.00;10.00;0.50;150.00;0.00;270.00;0.00;10.00;0.50;150.00;0.00;270.00;0.00;10.00;0.50;150.00;0.00;270.00;0.00;20.00;0.00;150.00;0.00;400.00;0.00;20.00;0.00;150.00;0.00;400.00;0.00;20.00;0.00;150.00;0.00;400.00;0.00;10.00;0.50;150.00;0.00;270.00;0.00;10.00;0.50;150.00;0.00;270.00;0.00;10.00;0.50;150.00;0.00;270.00;0.00;10.00;0.50;150.00;0.00;270.00;0.00;20.00;0.00;150.00;0.00;400.00;0.00;10.00;0.50;150.00;0.00;270.00;0.00;10.00;0.50;150.00;0.00;270.00;0.00;10.00;0.50;150.00;0.00;270.00;0.00;
		BEGIN_DATA
			-230.00		3.8858E+002	10.000E+00
			-229.29		3.8665E+002	10.000E+00
			-228.78		3.8795E+002	10.000E+00
			-228.27		3.8573E+002	10.000E+00
			-227.78		3.8648E+002	10.000E+00
			-227.26		3.8432E+002	10.000E+00
			-226.74		3.8396E+002	10.000E+00
			-226.23		3.7974E+002	10.000E+00
			-225.72		3.8046E+002	10.000E+00
			-225.21		3.7615E+002	10.000E+00
			-224.73		3.7858E+002	10.000E+00
			-224.24		3.7647E+002	10.000E+00
			-223.74		3.7485E+002	10.000E+00
			-223.23		3.7527E+002	10.000E+00
			-222.71		3.6982E+002	10.000E+00
			-222.21		3.7286E+002	10.000E+00
			-221.70		3.7071E+002	10.000E+00
			-221.19		3.6931E+002	10.000E+00
			-220.69		3.6698E+002	10.000E+00
			-220.18		3.6772E+002	10.000E+00
			-219.68		3.6559E+002	10.000E+00
			-219.18		3.6726E+002	10.000E+00
			-218.67		3.6384E+002	10.000E+00
			-218.17		3.6167E+002	10.000E+00
			-217.67		3.6423E+002	10.000E+00
			-217.17		3.6083E+002	10.000E+00
			-216.67		3.6011E+002	10.000E+00
			-216.18		3.5810E+002	10.000E+00
			-215.65		3.5670E+002	10.000E+00
			-215.14		3.5553E+002	10.000E+00
			-214.62		3.5402E+002	10.000E+00
			-214.10		3.5240E+002	10.000E+00
			-213.59		3.5323E+002	10.000E+00
			-213.09		3.5132E+002	10.000E+00
			-212.58		3.4991E+002	10.000E+00
			-212.08		3.5280E+002	10.000E+00
			-211.58		3.5105E+002	10.000E+00
			-211.08		3.4529E+002	10.000E+00
			-210.58		3.4886E+002	10.000E+00
			-210.07		3.4580E+002	10.000E+00
			-209.56		3.4556E+002	10.000E+00
			-209.04		3.4507E+002	10.000E+00
			-208.52		3.4424E+002	10.000E+00
			-208.01		3.4080E+002	10.000E+00
			-207.51		3.4013E+002	10.000E+00
			-207.03		3.3892E+002	10.000E+00
			-206.53		3.3847E+002	10.000E+00
			-206.01		3.3690E+002	10.000E+00
			-205.50		3.3723E+002	10.000E+00
			-204.99		3.3558E+002	10.000E+00
			-204.49		3.3522E+002	10.000E+00
			-203.98		3.3534E+002	10.000E+00
			-203.48		3.3136E+002	10.000E+00
			-202.97		3.3159E+002	10.000E+00
			-202.45		3.2938E+002	10.000E+00
			-201.95		3.2802E+002	10.000E+00
			-201.47		3.2819E+002	10.000E+00
			-200.96		3.2737E+002	10.000E+00
			-200.45		3.2432E+002	10.000E+00
			-199.95		3.2632E+002	10.000E+00
			-199.42		3.2415E+002	10.000E+00
			-198.91		3.2324E+002	10.000E+00
			-198.43		3.2383E+002	10.000E+00
			-197.94		3.2354E+002	10.000E+00
			-197.43		3.1861E+002	10.000E+00
			-196.93		3.2096E+002	10.000E+00
			-196.39		3.1927E+002	10.000E+00
			-195.88		3.1801E+002	10.000E+00
			-195.39		3.1520E+002	10.000E+00
			-194.88		3.1450E+002	10.000E+00
			-194.38		3.1521E+002	10.000E+00
			-193.87		3.1323E+002	10.000E+00
			-193.38		3.1497E+002	10.000E+00
			-192.89		3.1171E+002	10.000E+00
			-192.40		3.1067E+002	10.000E+00
			-191.89		3.0959E+002	10.000E+00
			-191.38		3.1006E+002	10.000E+00
			-190.86		3.0783E+002	10.000E+00
			-190.35		3.0528E+002	10.000E+00
			-189.84		3.0683E+002	10.000E+00
			-189.34		3.0525E+002	10.000E+00
			-188.84		3.0398E+002	10.000E+00
			-188.33		3.0333E+002	10.000E+00
			-187.81		3.0260E+002	10.000E+00
			-187.32		3.0144E+002	10.000E+00
			-186.82		3.0095E+002	10.000E+00
			-186.32		2.9978E+002	10.000E+00
			-185.83		3.0056E+002	10.000E+00
			-185.32		2.9809E+002	10.000E+00
			-184.80		2.9634E+002	10.000E+00
			-184.28		2.9610E+002	10.000E+00
			-183.76		2.9712E+002	10.000E+00
			-183.27		2.9349E+002	10.000E+00
			-182.77		2.9281E+002	10.000E+00
			-182.27		2.9261E+002	10.000E+00
			-181.75		2.9214E+002	10.000E+00
			-181.24		2.8973E+002	10.000E+00
			-180.74		2.9043E+002	10.000E+00
			-180.23		2.8775E+002	10.000E+00
			-179.72		2.8664E+002	10.000E+00
			-179.22		2.8847E+002	10.000E+00
			-178.73		2.8495E+002	10.000E+00
			-178.23		2.8647E+002	10.000E+00
			-177.71		2.8348E+002	10.000E+00
			-177.20		2.8307E+002	10.000E+00
			-176.69		2.8486E+002	10.000E+00
			-176.19		2.8030E+002	10.000E+00
			-175.68		2.8040E+002	10.000E+00
			-175.19		2.8051E+002	10.000E+00
			-174.67		2.7926E+002	10.000E+00
			-174.16		2.7749E+002	10.000E+00
			-173.64		2.7861E+002	10.000E+00
			-173.15		2.7533E+002	10.000E+00
			-172.65		2.7529E+002	10.000E+00
			-172.13		2.7712E+002	10.000E+00
			-171.63		2.7347E+002	10.000E+00
			-171.14		2.7540E+002	10.000E+00
			-170.63		2.7251E+002	10.000E+00
			-170.12		2.7043E+002	10.000E+00
			-169.62		2.7358E+002	10.000E+00
			-169.10		2.6969E+002	10.000E+00
			-168.59		2.6951E+002	10.000E+00
			-168.09		2.6766E+002	10.000E+00
			-167.59		2.6834E+002	10.000E+00
			-167.08		2.6544E+002	10.000E+00
			-166.58		2.6513E+002	10.000E+00
			-166.07		2.6578E+002	10.000E+00
			-165.57		2.6505E+002	10.000E+00
			-165.07		2.6247E+002	10.000E+00
			-164.58		2.6257E+002	10.000E+00
			-164.07		2.6204E+002	10.000E+00
			-163.57		2.6013E+002	10.000E+00
			-163.05		2.5879E+002	10.000E+00
			-162.53		2.5891E+002	10.000E+00
			-162.02		2.6101E+002	10.000E+00
			-161.51		2.5795E+002	10.000E+00
			-161.01		2.5864E+002	10.000E+00
			-160.50		2.5709E+002	10.000E+00
			-160.00		2.5497E+002	10.000E+00
			-159.50		2.5417E+002	10.000E+00
			-159.00		2.5315E+002	10.000E+00
			-158.49		2.5273E+002	10.000E+00
			-157.97		2.5347E+002	10.000E+00
			-157.47		2.5157E+002	10.000E+00
			-156.97		2.5316E+002	10.000E+00
			-156.48		2.4952E+002	10.000E+00
			-155.97		2.4997E+002	10.000E+00
			-155.45		2.4813E+002	10.000E+00
			-154.93		2.4803E+002	10.000E+00
			-154.43		2.4511E+002	10.000E+00
			-153.91		2.4565E+002	10.000E+00
			-153.39		2.4561E+002	10.000E+00
			-152.88		2.4677E+002	10.000E+00
			-152.36		2.4356E+002	10.000E+00
			-151.85		2.4259E+002	10.000E+00
			-151.34		2.4281E+002	10.000E+00
			-150.85		2.4160E+002	10.000E+00
			-150.34		2.4076E+002	10.000E+00
			-149.82		2.4058E+002	10.000E+00
			-149.31		2.4107E+002	10.000E+00
			-148.80		2.4032E+002	10.000E+00
			-148.31		2.3805E+002	10.000E+00
			-147.80		2.3905E+002	10.000E+00
			-147.30		2.3738E+002	10.000E+00
			-146.79		2.3666E+002	10.000E+00
			-146.28		2.3549E+002	10.000E+00
			-145.78		2.3483E+002	10.000E+00
			-145.27		2.3190E+002	10.000E+00
			-144.76		2.3210E+002	10.000E+00
			-144.24		2.3293E+002	10.000E+00
			-143.73		2.3154E+002	10.000E+00
			-143.24		2.3092E+002	10.000E+00
			-142.74		2.3077E+002	10.000E+00
			-142.25		2.2900E+002	10.000E+00
			-141.74		2.2774E+002	10.000E+00
			-141.22		2.2823E+002	10.000E+00
			-140.72		2.2883E+002	10.000E+00
			-140.22		2.2759E+002	10.000E+00
			-139.69		2.2487E+002	10.000E+00
			-139.19		2.2728E+002	10.000E+00
			-138.69		2.2566E+002	10.000E+00
			-138.19		2.2482E+002	10.000E+00
			-137.68		2.2336E+002	10.000E+00
			-137.17		2.2204E+002	10.000E+00
			-136.66		2.2254E+002	10.000E+00
			-136.16		2.2080E+002	10.000E+00
			-135.65		2.2185E+002	10.000E+00
			-135.15		2.2040E+002	10.000E+00
			-134.64		2.1924E+002	10.000E+00
			-134.13		2.1813E+002	10.000E+00
			-133.62		2.1909E+002	10.000E+00
			-133.11		2.1775E+002	10.000E+00
			-132.59		2.1837E+002	10.000E+00
			-132.08		2.1555E+002	10.000E+00
			-131.57		2.1484E+002	10.000E+00
			-131.06		2.1508E+002	10.000E+00
			-130.55		2.1460E+002	10.000E+00
			-130.03		2.1297E+002	10.000E+00
			-129.52		2.1242E+002	10.000E+00
			-129.02		2.1225E+002	10.000E+00
			-128.52		2.1228E+002	10.000E+00
			-128.02		2.1075E+002	10.000E+00
			-127.51		2.1100E+002	10.000E+00
			-126.99		2.0946E+002	10.000E+00
			-126.48		2.1127E+002	10.000E+00
			-125.98		2.0656E+002	10.000E+00
			-125.46		2.0813E+002	10.000E+00
			-124.96		2.0816E+002	10.000E+00
			-124.47		2.0655E+002	10.000E+00
			-123.96		2.0501E+002	10.000E+00
			-123.44		2.0486E+002	10.000E+00
			-122.94		2.0458E+002	10.000E+00
			-122.45		2.0474E+002	10.000E+00
			-121.94		2.0343E+002	10.000E+00
			-121.42		2.0246E+002	10.000E+00
			-120.90		2.0179E+002	10.000E+00
			-120.39		2.0200E+002	10.000E+00
			-119.89		2.0048E+002	10.000E+00
			-119.38		1.9959E+002	10.000E+00
			-118.89		1.9992E+002	10.000E+00
			-118.38		1.9913E+002	10.000E+00
			-117.86		1.9816E+002	10.000E+00
			-117.35		1.9753E+002	10.000E+00
			-116.83		1.9777E+002	10.000E+00
			-116.34		1.9757E+002	10.000E+00
			-115.85		1.9490E+002	10.000E+00
			-115.34		1.9544E+002	10.000E+00
			-114.84		1.9540E+002	10.000E+00
			-114.32		1.9433E+002	10.000E+00
			-113.80		1.9365E+002	10.000E+00
			-113.29		1.9314E+002	10.000E+00
			-112.78		1.9289E+002	10.000E+00
			-112.26		1.9251E+002	10.000E+00
			-111.76		1.9237E+002	10.000E+00
			-111.25		1.9075E+002	10.000E+00
			-110.74		1.9034E+002	10.000E+00
			-110.25		1.8917E+002	10.000E+00
			-109.76		1.8896E+002	10.000E+00
			-109.25		1.8825E+002	10.000E+00
			-108.74		1.8776E+002	10.000E+00
			-108.23		1.8768E+002	10.000E+00
			-107.72		1.8668E+002	10.000E+00
			-107.20		1.8632E+002	10.000E+00
			-106.68		1.8442E+002	10.000E+00
			-106.19		1.8451E+002	10.000E+00
			-105.69		1.8531E+002	10.000E+00
			-105.20		1.8333E+002	10.000E+00
			-104.70		1.8287E+002	10.000E+00
			-104.20		1.8312E+002	10.000E+00
			-103.69		1.8184E+002	10.000E+00
			-103.18		1.8106E+002	10.000E+00
			-102.67		1.8212E+002	10.000E+00
			-102.15		1.8035E+002	10.000E+00
			-101.65		1.8129E+002	10.000E+00
			-101.13		1.7860E+002	10.000E+00
			-100.62		1.7888E+002	10.000E+00
			-100.12		1.7929E+002	10.000E+00
			-99.61		1.7720E+002	10.000E+00
			-99.09		1.7752E+002	10.000E+00
			-98.59		1.7640E+002	10.000E+00
			-98.11		1.7679E+002	10.000E+00
			-97.63		1.7517E+002	10.000E+00
			-97.12		1.7551E+002	10.000E+00
			-96.61		1.7565E+002	10.000E+00
			-96.12		1.7407E+002	10.000E+00
			-95.61		1.7455E+002	10.000E+00
			-95.12		1.7392E+002	10.000E+00
			-94.59		1.7402E+002	10.000E+00
			-94.11		1.7314E+002	10.000E+00
			-93.62		1.7057E+002	10.000E+00
			-93.09		1.7136E+002	10.000E+00
			-92.57		1.7135E+002	10.000E+00
			-92.11		1.7026E+002	10.000E+00
			-91.62		1.6884E+002	10.000E+00
			-91.09		1.6933E+002	10.000E+00
			-90.58		1.7002E+002	10.000E+00
			-90.08		1.6922E+002	10.000E+00
			-89.57		1.6894E+002	10.000E+00
			-89.06		1.6795E+002	10.000E+00
			-88.55		1.6826E+002	10.000E+00
			-88.03		1.6589E+002	10.000E+00
			-87.53		1.6460E+002	10.000E+00
			-87.02		1.6499E+002	10.000E+00
			-86.52		1.6506E+002	10.000E+00
			-86.03		1.6466E+002	10.000E+00
			-85.52		1.6355E+002	10.000E+00
			-85.00		1.6392E+002	10.000E+00
			-84.48		1.6335E+002	10.000E+00
			-83.98		1.6198E+002	10.000E+00
			-83.47		1.6149E+002	10.000E+00
			-82.98		1.6096E+002	10.000E+00
			-82.47		1.6183E+002	10.000E+00
			-81.97		1.6059E+002	10.000E+00
			-81.46		1.6070E+002	10.000E+00
			-80.95		1.6008E+002	10.000E+00
			-80.44		1.5866E+002	10.000E+00
			-79.94		1.5851E+002	10.000E+00
			-79.43		1.5825E+002	10.000E+00
			-78.90		1.5740E+002	10.000E+00
			-78.39		1.5769E+002	10.000E+00
			-77.89		1.5595E+002	10.000E+00
			-77.38		1.5635E+002	10.000E+00
			-76.87		1.5619E+002	10.000E+00
			-76.36		1.5614E+002	10.000E+00
			-75.85		1.5426E+002	10.000E+00
			-75.34		1.5315E+002	10.000E+00
			-74.83		1.5405E+002	10.000E+00
			-74.32		1.5319E+002	10.000E+00
			-73.81		1.5334E+002	10.000E+00
			-73.30		1.5289E+002	10.000E+00
			-72.77		1.5125E+002	10.000E+00
			-72.27		1.5145E+002	10.000E+00
			-71.77		1.5090E+002	10.000E+00
			-71.26		1.5076E+002	10.000E+00
			-70.75		1.5098E+002	10.000E+00
			-70.25		1.4908E+002	10.000E+00
			-69.73		1.4876E+002	10.000E+00
			-69.21		1.4920E+002	10.000E+00
			-68.71		1.4855E+002	10.000E+00
			-68.20		1.4873E+002	10.000E+00
			-67.71		1.4828E+002	10.000E+00
			-67.20		1.4784E+002	10.000E+00
			-66.68		1.4717E+002	10.000E+00
			-66.17		1.4591E+002	10.000E+00
			-65.68		1.4630E+002	10.000E+00
			-65.20		1.4533E+002	10.000E+00
			-64.68		1.4450E+002	10.000E+00
			-64.16		1.4388E+002	10.000E+00
			-63.65		1.4436E+002	10.000E+00
			-63.13		1.4409E+002	10.000E+00
			-62.61		1.4225E+002	10.000E+00
			-62.11		1.4382E+002	10.000E+00
			-61.61		1.4279E+002	10.000E+00
			-61.08		1.4301E+002	10.000E+00
			-60.56		1.4144E+002	10.000E+00
			-60.05		1.4080E+002	10.000E+00
			-59.56		1.3956E+002	10.000E+00
			-59.08		1.4115E+002	10.000E+00
			-58.58		1.4042E+002	10.000E+00
			-58.07		1.3985E+002	10.000E+00
			-57.56		1.3869E+002	10.000E+00
			-57.05		1.3839E+002	10.000E+00
			-56.55		1.3815E+002	10.000E+00
			-56.04		1.3754E+002	10.000E+00
			-55.52		1.3739E+002	10.000E+00
			-55.01		1.3642E+002	10.000E+00
			-54.49		1.3659E+002	10.000E+00
			-53.98		1.3633E+002	10.000E+00
			-53.49		1.3551E+002	10.000E+00
			-52.99		1.3624E+002	10.000E+00
			-52.47		1.3525E+002	10.000E+00
			-51.95		1.3533E+002	10.000E+00
			-51.44		1.3441E+002	10.000E+00
			-50.94		1.3416E+002	10.000E+00
			-50.44		1.3433E+002	10.000E+00
			-49.94		1.3272E+002	10.000E+00
			-49.43		1.3273E+002	10.000E+00
			-48.92		1.3244E+002	10.000E+00
			-48.41		1.3159E+002	10.000E+00
			-47.91		1.3207E+002	10.000E+00
			-47.41		1.3155E+002	10.000E+00
			-46.92		1.3114E+002	10.000E+00
			-46.43		1.3003E+002	10.000E+00
			-45.92		1.3052E+002	10.000E+00
			-45.41		1.2908E+002	10.000E+00
			-44.90		1.3017E+002	10.000E+00
			-44.40		1.2866E+002	10.000E+00
			-43.87		1.2793E+002	10.000E+00
			-43.36		1.2845E+002	10.000E+00
			-42.85		1.2726E+002	10.000E+00
			-42.33		1.2792E+002	10.000E+00
			-41.82		1.2772E+002	10.000E+00
			-41.33		1.2628E+002	10.000E+00
			-40.82		1.2597E+002	10.000E+00
			-40.31		1.2526E+002	10.000E+00
			-39.79		1.2595E+002	10.000E+00
			-39.28		1.2563E+002	10.000E+00
			-38.79		1.2459E+002	10.000E+00
			-38.28		1.2437E+002	10.000E+00
			-37.76		1.2397E+002	10.000E+00
			-37.24		1.2324E+002	10.000E+00
			-36.74		1.2318E+002	10.000E+00
			-36.23		1.2254E+002	10.000E+00
			-35.73		1.2269E+002	10.000E+00
			-35.23		1.2293E+002	10.000E+00
			-34.72		1.2150E+002	10.000E+00
			-34.21		1.2114E+002	10.000E+00
			-33.70		1.2126E+002	10.000E+00
			-33.20		1.2114E+002	10.000E+00
			-32.68		1.2046E+002	10.000E+00
			-32.17		1.1995E+002	10.000E+00
			-31.66		1.1909E+002	10.000E+00
			-31.14		1.1960E+002	10.000E+00
			-30.62		1.1930E+002	10.000E+00
			-30.11		1.1907E+002	10.000E+00
			-29.60		1.1838E+002	10.000E+00
			-29.09		1.1842E+002	10.000E+00
			-28.57		1.1837E+002	10.000E+00
			-28.06		1.1693E+002	10.000E+00
			-27.55		1.1742E+002	10.000E+00
			-27.04		1.1683E+002	10.000E+00
			-26.52		1.1656E+002	10.000E+00
			-26.03		1.1593E+002	10.000E+00
			-25.52		1.1634E+002	10.000E+00
			-25.01		1.1517E+002	10.000E+00
			-24.51		1.1474E+002	10.000E+00
			-24.01		1.1504E+002	10.000E+00
			-23.49		1.1426E+002	10.000E+00
			-22.99		1.1373E+002	10.000E+00
			-22.49		1.1391E+002	10.000E+00
			-21.98		1.1333E+002	10.000E+00
			-21.47		1.1298E+002	10.000E+00
			-20.96		1.1269E+002	10.000E+00
			-20.45		1.1216E+002	10.000E+00
			-19.95		1.1272E+002	10.000E+00
			-19.45		1.1164E+002	10.000E+00
			-18.94		1.1164E+002	10.000E+00
			-18.43		1.1083E+002	10.000E+00
			-17.94		1.1086E+002	10.000E+00
			-17.44		1.1013E+002	10.000E+00
			-16.93		1.1052E+002	10.000E+00
			-16.41		1.1044E+002	10.000E+00
			-15.88		1.0995E+002	10.000E+00
			-15.39		1.0939E+002	10.000E+00
			-14.89		1.0880E+002	10.000E+00
			-14.37		1.0847E+002	10.000E+00
			-13.87		1.0834E+002	10.000E+00
			-13.37		1.0812E+002	10.000E+00
			-12.86		1.0740E+002	10.000E+00
			-12.36		1.0730E+002	10.000E+00
			-11.87		1.0730E+002	10.000E+00
			-11.37		1.0615E+002	10.000E+00
			-10.86		1.0657E+002	10.000E+00
			-10.33		1.0631E+002	10.000E+00
			-9.80		1.0554E+002	10.000E+00
			-9.29		1.0630E+002	10.000E+00
			-8.80		1.0516E+002	10.000E+00
			-8.31		1.0454E+002	10.000E+00
			-7.79		1.0459E+002	10.000E+00
			-7.26		1.0456E+002	10.000E+00
			-6.75		1.0398E+002	10.000E+00
			-6.24		1.0289E+002	10.000E+00
			-5.74		1.0308E+002	10.000E+00
			-5.24		1.0314E+002	10.000E+00
			-4.73		1.0272E+002	10.000E+00
			-4.21		1.0330E+002	10.000E+00
			-3.70		1.0220E+002	10.000E+00
			-3.21		1.0263E+002	10.000E+00
			-2.71		1.0140E+002	10.000E+00
			-2.20		1.0119E+002	10.000E+00
			-1.68		1.0064E+002	10.000E+00
			-1.16		1.0059E+002	10.000E+00
			-0.66		1.0032E+002	10.000E+00
			-0.17		9.9331E+001	10.000E+00
			0.33		9.9177E+001	10.000E+00
			0.83		9.9162E+001	10.000E+00
			1.33		9.8861E+001	10.000E+00
			1.85		9.8791E+001	10.000E+00
			2.36		9.7962E+001	10.000E+00
			2.87		9.7481E+001	10.000E+00
			3.37		9.7806E+001	10.000E+00
			3.86		9.7896E+001	10.000E+00
			4.37		9.7390E+001	10.000E+00
			4.88		9.7182E+001	10.000E+00
			5.39		9.7203E+001	10.000E+00
			5.91		9.5454E+001	10.000E+00
			6.41		9.6302E+001	10.000E+00
			6.90		9.5679E+001	10.000E+00
			7.39		9.5983E+001	10.000E+00
			7.90		9.5815E+001	10.000E+00
			8.41		9.5865E+001	10.000E+00
			8.92		9.5404E+001	10.000E+00
			9.43		9.5201E+001	10.000E+00
			9.93		9.4577E+001	10.000E+00
			10.42		9.4095E+001	10.000E+00
			10.92		9.4099E+001	10.000E+00
			11.43		9.3843E+001	10.000E+00
			11.93		9.3151E+001	10.000E+00
			12.44		9.2865E+001	10.000E+00
			12.94		9.2961E+001	10.000E+00
			13.44		9.2604E+001	10.000E+00
			13.96		9.2097E+001	10.000E+00
			14.47		9.2177E+001	10.000E+00
			14.98		9.1592E+001	10.000E+00
			15.48		9.2272E+001	10.000E+00
			15.99		9.0961E+001	10.000E+00
			16.49		9.0961E+001	10.000E+00
			17.00		9.0485E+001	10.000E+00
			17.52		8.9960E+001	10.000E+00
			18.03		9.0741E+001	10.000E+00
			18.54		9.0438E+001	10.000E+00
			19.03		8.9672E+001	10.000E+00
			19.52		8.9223E+001	10.000E+00
			20.02		8.9445E+001	10.000E+00
			20.53		8.9075E+001	10.000E+00
			21.04		8.8692E+001	10.000E+00
			21.54		8.8675E+001	10.000E+00
			22.04		8.8315E+001	10.000E+00
			22.56		8.7647E+001	10.000E+00
			23.06		8.7520E+001	10.000E+00
			23.55		8.8006E+001	10.000E+00
			24.07		8.7183E+001	10.000E+00
			24.57		8.7103E+001	10.000E+00
			25.06		8.7299E+001	10.000E+00
			25.57		8.6431E+001	10.000E+00
			26.09		8.5786E+001	10.000E+00
			26.60		8.6481E+001	10.000E+00
			27.11		8.5548E+001	10.000E+00
			27.62		8.5602E+001	10.000E+00
			28.13		8.5039E+001	10.000E+00
			28.65		8.5159E+001	10.000E+00
			29.17		8.4764E+001	10.000E+00
			29.68		8.4258E+001	10.000E+00
			30.19		8.4127E+001	10.000E+00
			30.69		8.4215E+001	10.000E+00
			31.20		8.3824E+001	10.000E+00
			31.70		8.3201E+001	10.000E+00
			32.21		8.3082E+001	10.000E+00
			32.70		8.2941E+001	10.000E+00
			33.20		8.3065E+001	10.000E+00
			33.72		8.2257E+001	10.000E+00
			34.22		8.2366E+001	10.000E+00
			34.75		8.2406E+001	10.000E+00
			35.25		8.1985E+001	10.000E+00
			35.75		8.1532E+001	10.000E+00
			36.25		8.1561E+001	10.000E+00
			36.77		8.1321E+001	10.000E+00
			37.28		8.1346E+001	10.000E+00
			37.79		8.0847E+001	10.000E+00
			38.30		8.0958E+001	10.000E+00
			38.81		8.0264E+001	10.000E+00
			39.33		7.9801E+001	10.000E+00
			39.83		7.9595E+001	10.000E+00
			40.34		8.0289E+001	10.000E+00
			40.86		7.9601E+001	10.000E+00
			41.37		7.9307E+001	10.000E+00
			41.87		7.9075E+001	10.000E+00
			42.38		7.8429E+001	10.000E+00
			42.90		7.8215E+001	10.000E+00
			43.40		7.8244E+001	10.000E+00
			43.91		7.7659E+001	10.000E+00
			44.41		7.8041E+001	10.000E+00
			44.91		7.7349E+001	10.000E+00
			45.41		7.7570E+001	10.000E+00
			45.93		7.6815E+001	10.000E+00
			46.44		7.7083E+001	10.000E+00
			46.94		7.7171E+001	10.000E+00
			47.45		7.6473E+001	10.000E+00
			47.95		7.6229E+001	10.000E+00
			48.47		7.6257E+001	10.000E+00
			48.98		7.6119E+001	10.000E+00
			49.49		7.5783E+001	10.000E+00
			50.00		7.5182E+001	10.000E+00
			50.51		7.5505E+001	10.000E+00
			51.01		7.4696E+001	10.000E+00
			51.51		7.5521E+001	10.000E+00
			52.00		7.4624E+001	10.000E+00
			52.52		7.5003E+001	10.000E+00
			53.05		7.3679E+001	10.000E+00
			53.57		7.4043E+001	10.000E+00
			54.07		7.3440E+001	10.000E+00
			54.57		7.3733E+001	10.000E+00
			55.08		7.3600E+001	10.000E+00
			55.59		7.3374E+001	10.000E+00
			56.09		7.2873E+001	10.000E+00
			56.57		7.2588E+001	10.000E+00
			57.08		7.2708E+001	10.000E+00
			57.60		7.2411E+001	10.000E+00
			58.10		7.2488E+001	10.000E+00
			58.61		7.1683E+001	10.000E+00
			59.13		7.1498E+001	10.000E+00
			59.65		7.1696E+001	10.000E+00
			60.16		7.1860E+001	10.000E+00
			60.66		7.1220E+001	10.000E+00
			61.15		7.1035E+001	10.000E+00
			61.66		7.0835E+001	10.000E+00
			62.17		7.0184E+001	10.000E+00
			62.69		7.0644E+001	10.000E+00
			63.19		7.0043E+001	10.000E+00
			63.71		7.0106E+001	10.000E+00
			64.22		6.9542E+001	10.000E+00
			64.72		6.9224E+001	10.000E+00
			65.22		6.9504E+001	10.000E+00
			65.72		6.9331E+001	10.000E+00
			66.23		6.9282E+001	10.000E+00
			66.73		6.8597E+001	10.000E+00
			67.23		6.8939E+001	10.000E+00
			67.75		6.8562E+001	10.000E+00
			68.26		6.8525E+001	10.000E+00
			68.76		6.8070E+001	10.000E+00
			69.27		6.7793E+001	10.000E+00
			69.77		6.7897E+001	10.000E+00
			70.27		6.7512E+001	10.000E+00
			70.77		6.7569E+001	10.000E+00
			71.30		6.6833E+001	10.000E+00
			71.80		6.6581E+001	10.000E+00
			72.29		6.6522E+001	10.000E+00
			72.80		6.6440E+001	10.000E+00
			73.29		6.6223E+001	10.000E+00
			73.79		6.6218E+001	10.000E+00
			74.30		6.5923E+001	10.000E+00
			74.80		6.6392E+001	10.000E+00
			75.32		6.5633E+001	10.000E+00
			75.83		6.5492E+001	10.000E+00
			76.33		6.5476E+001	10.000E+00
			76.83		6.4656E+001	10.000E+00
			77.33		6.5292E+001	10.000E+00
			77.84		6.4755E+001	10.000E+00
			78.33		6.4441E+001	10.000E+00
			78.83		6.4308E+001	10.000E+00
			79.34		6.4451E+001	10.000E+00
			79.85		6.3872E+001	10.000E+00
			80.37		6.3706E+001	10.000E+00
			80.89		6.4159E+001	10.000E+00
			81.40		6.3492E+001	10.000E+00
			81.89		6.2958E+001	10.000E+00
			82.39		6.3492E+001	10.000E+00
			82.89		6.3218E+001	10.000E+00
			83.40		6.2760E+001	10.000E+00
			83.90		6.3120E+001	10.000E+00
			84.40		6.2483E+001	10.000E+00
			84.93		6.2432E+001	10.000E+00
			85.43		6.1805E+001	10.000E+00
			85.95		6.1964E+001	10.000E+00
			86.46		6.1963E+001	10.000E+00
			86.98		6.1592E+001	10.000E+00
			87.49		6.1802E+001	10.000E+00
			88.00		6.1057E+001	10.000E+00
			88.49		6.1224E+001	10.000E+00
			89.00		6.0658E+001	10.000E+00
			89.51		6.0685E+001	10.000E+00
			90.01		6.0491E+001	10.000E+00
			90.52		6.0463E+001	10.000E+00
			91.03		6.0795E+001	10.000E+00
			91.54		5.9869E+001	10.000E+00
			92.06		6.0428E+001	10.000E+00
			92.57		5.9797E+001	10.000E+00
			93.07		5.9817E+001	10.000E+00
			93.58		5.9331E+001	10.000E+00
			94.08		5.9135E+001	10.000E+00
			94.59		5.9041E+001	10.000E+00
			95.10		5.9197E+001	10.000E+00
			95.61		5.9082E+001	10.000E+00
			96.12		5.8970E+001	10.000E+00
			96.61		5.8584E+001	10.000E+00
			97.11		5.8371E+001	10.000E+00
			97.62		5.8271E+001	10.000E+00
			98.14		5.8103E+001	10.000E+00
			98.65		5.7927E+001	10.000E+00
			99.17		5.7873E+001	10.000E+00
			99.68		5.7147E+001	10.000E+00
			100.20		5.7605E+001	10.000E+00
			100.71		5.7473E+001	10.000E+00
			101.20		5.7149E+001	10.000E+00
			101.70		5.6698E+001	10.000E+00
			102.21		5.7111E+001	10.000E+00
			102.73		5.6791E+001	10.000E+00
			103.23		5.6481E+001	10.000E+00
			103.72		5.6477E+001	10.000E+00
			104.24		5.6411E+001	10.000E+00
			104.76		5.5657E+001	10.000E+00
			105.28		5.6036E+001	10.000E+00
			105.79		5.5668E+001	10.000E+00
			106.30		5.5681E+001	10.000E+00
			106.79		5.5147E+001	10.000E+00
			107.30		5.5317E+001	10.000E+00
			107.82		5.4997E+001	10.000E+00
			108.34		5.5068E+001	10.000E+00
			108.84		5.4945E+001	10.000E+00
			109.34		5.4492E+001	10.000E+00
			109.84		5.4348E+001	10.000E+00
			110.35		5.3710E+001	10.000E+00
			110.85		5.4119E+001	10.000E+00
			111.37		5.4362E+001	10.000E+00
			111.88		5.3965E+001	10.000E+00
			112.40		5.3731E+001	10.000E+00
			112.91		5.3746E+001	10.000E+00
			113.42		5.3490E+001	10.000E+00
			113.94		5.3202E+001	10.000E+00
			114.43		5.3179E+001	10.000E+00
			114.91		5.2983E+001	10.000E+00
			115.42		5.3107E+001	10.000E+00
			115.92		5.2788E+001	10.000E+00
			116.43		5.2417E+001	10.000E+00
			116.94		5.2522E+001	10.000E+00
			117.45		5.2261E+001	10.000E+00
			117.96		5.2053E+001	10.000E+00
			118.47		5.1910E+001	10.000E+00
			118.97		5.1762E+001	10.000E+00
			119.50		5.1768E+001	10.000E+00
			120.01		5.1624E+001	10.000E+00
			120.51		5.1614E+001	10.000E+00
			121.00		5.1036E+001	10.000E+00
			121.50		5.1245E+001	10.000E+00
			122.00		5.0854E+001	10.000E+00
			122.51		5.0842E+001	10.000E+00
			123.00		5.0219E+001	10.000E+00
			123.50		5.0677E+001	10.000E+00
			124.00		5.0520E+001	10.000E+00
			124.50		5.0371E+001	10.000E+00
			125.01		5.0112E+001	10.000E+00
			125.52		5.0184E+001	10.000E+00
			126.03		5.0135E+001	10.000E+00
			126.54		4.9712E+001	10.000E+00
			127.04		4.9610E+001	10.000E+00
			127.54		4.9833E+001	10.000E+00
			128.03		4.9347E+001	10.000E+00
			128.53		4.9256E+001	10.000E+00
			129.03		4.9051E+001	10.000E+00
			129.54		4.8906E+001	10.000E+00
			130.04		4.8951E+001	10.000E+00
			130.56		4.8613E+001	10.000E+00
			131.07		4.9076E+001	10.000E+00
			131.59		4.8632E+001	10.000E+00
			132.09		4.8419E+001	10.000E+00
			132.60		4.7990E+001	10.000E+00
			133.10		4.8216E+001	10.000E+00
			133.58		4.8375E+001	10.000E+00
			134.07		4.7757E+001	10.000E+00
			134.58		4.8112E+001	10.000E+00
			135.09		4.7681E+001	10.000E+00
			135.59		4.7435E+001	10.000E+00
			136.11		4.7327E+001	10.000E+00
			136.64		4.7511E+001	10.000E+00
			137.13		4.6761E+001	10.000E+00
			137.65		4.6958E+001	10.000E+00
			138.17		4.6798E+001	10.000E+00
			138.71		4.7027E+001	10.000E+00
			139.20		4.6681E+001	10.000E+00
			139.70		4.6582E+001	10.000E+00
			140.21		4.6662E+001	10.000E+00
			140.71		4.6223E+001	10.000E+00
			141.22		4.6195E+001	10.000E+00
			141.71		4.5874E+001	10.000E+00
			142.21		4.5753E+001	10.000E+00
			142.74		4.5581E+001	10.000E+00
			143.26		4.5465E+001	10.000E+00
			143.78		4.5671E+001	10.000E+00
			144.27		4.5395E+001	10.000E+00
			144.79		4.5173E+001	10.000E+00
			145.28		4.5205E+001	10.000E+00
			145.76		4.4892E+001	10.000E+00
			146.28		4.4959E+001	10.000E+00
			146.79		4.5003E+001	10.000E+00
			147.29		4.4620E+001	10.000E+00
			147.80		4.4363E+001	10.000E+00
			148.30		4.4659E+001	10.000E+00
			148.83		4.4162E+001	10.000E+00
			149.33		4.4225E+001	10.000E+00
			149.84		4.4521E+001	10.000E+00
			150.36		4.3878E+001	10.000E+00
			150.87		4.3632E+001	10.000E+00
			151.37		4.3775E+001	10.000E+00
			151.88		4.3816E+001	10.000E+00
			152.38		4.3316E+001	10.000E+00
			152.89		4.3101E+001	10.000E+00
			153.41		4.2835E+001	10.000E+00
			153.91		4.2819E+001	10.000E+00
			154.42		4.2874E+001	10.000E+00
			154.94		4.3024E+001	10.000E+00
			155.46		4.2726E+001	10.000E+00
			155.98		4.2551E+001	10.000E+00
			156.48		4.2565E+001	10.000E+00
			156.99		4.2615E+001	10.000E+00
			157.50		4.2377E+001	10.000E+00
			158.00		4.2061E+001	10.000E+00
			158.51		4.1916E+001	10.000E+00
			159.02		4.2015E+001	10.000E+00
			159.53		4.1929E+001	10.000E+00
			160.03		4.1955E+001	10.000E+00
			160.53		4.1367E+001	10.000E+00
			161.03		4.1427E+001	10.000E+00
			161.55		4.1286E+001	10.000E+00
			162.08		4.1397E+001	10.000E+00
			162.58		4.1358E+001	10.000E+00
			163.09		4.1249E+001	10.000E+00
			163.61		4.1022E+001	10.000E+00
			164.13		4.1020E+001	10.000E+00
			164.63		4.0845E+001	10.000E+00
			165.13		4.0503E+001	10.000E+00
			165.64		4.0618E+001	10.000E+00
			166.14		4.0297E+001	10.000E+00
			166.63		4.0394E+001	10.000E+00
			167.16		4.0230E+001	10.000E+00
			167.66		4.0246E+001	10.000E+00
			168.16		4.0217E+001	10.000E+00
			168.67		4.0041E+001	10.000E+00
			169.19		3.9611E+001	10.000E+00
			169.70		3.9558E+001	10.000E+00
			170.19		3.9829E+001	10.000E+00
			170.70		3.9371E+001	10.000E+00
			171.22		3.9045E+001	10.000E+00
			171.71		3.9454E+001	10.000E+00
			172.21		3.9131E+001	10.000E+00
			172.74		3.8810E+001	10.000E+00
			173.26		3.8847E+001	10.000E+00
			173.75		3.9043E+001	10.000E+00
			174.23		3.8330E+001	10.000E+00
			174.73		3.8423E+001	10.000E+00
			175.22		3.8577E+001	10.000E+00
			175.73		3.8474E+001	10.000E+00
			176.26		3.8258E+001	10.000E+00
			176.77		3.8438E+001	10.000E+00
			177.27		3.8167E+001	10.000E+00
			177.77		3.8036E+001	10.000E+00
			178.29		3.7769E+001	10.000E+00
			178.80		3.7895E+001	10.000E+00
			179.32		3.7815E+001	10.000E+00
			179.83		3.7631E+001	10.000E+00
			180.33		3.7360E+001	10.000E+00
			180.83		3.7273E+001	10.000E+00
			181.32		3.7279E+001	10.000E+00
			181.83		3.7219E+001	10.000E+00
			182.36		3.7344E+001	10.000E+00
			182.88		3.6943E+001	10.000E+00
			183.40		3.6898E+001	10.000E+00
			183.89		3.6852E+001	10.000E+00
			184.39		3.6699E+001	10.000E+00
			184.91		3.6425E+001	10.000E+00
			185.44		3.6550E+001	10.000E+00
			185.95		3.6282E+001	10.000E+00
			186.43		3.6276E+001	10.000E+00
			186.93		3.6292E+001	10.000E+00
			187.45		3.6025E+001	10.000E+00
			187.97		3.6160E+001	10.000E+00
			188.48		3.6113E+001	10.000E+00
			188.99		3.5899E+001	10.000E+00
			189.48		3.5645E+001	10.000E+00
