BEGIN_SCAN_DATA
	FORMAT=CC-Export V1.9
	FILE_CREATION_DATE=17-aug-2015 22:27:58
	LAST_MODIFIED=17-aug-2015 22:27:58
	BEGIN_SCAN   1
		PROGRAM=BistroMath.exe v2.80 alpha (build 443)
		COMMENT=gantry 90, epom 0, origin isoc
		MEAS_DATE=11-aug-2015 19:01:18
		LINAC=U15
		MODALITY=X
		ISOCENTER=1000.0
		INPLANE_AXIS=Y
		CROSSPLANE_AXIS=Z
		DEPTH_AXIS=X
		INPLANE_AXIS_DIR=GUN_TARGET
		CROSSPLANE_AXIS_DIR=LEFT_RIGHT
		DEPTH_AXIS_DIR=UP_DOWN
		ENERGY=6.00
		NOMINAL_DMAX=15.00
		SSD=677.00
		SCD=380.00
		BLOCK=0
		WEDGE_ANGLE=0.00
		FIELD_INPLANE=100.00
		FIELD_CROSSPLANE=100.00
		FIELD_TYPE=RECTANGULAR
		GANTRY=90.00
		GANTRY_UPRIGHT_POSITION=0.00
		GANTRY_ROTATION=CW
		COLL_ANGLE=0.00
		COLL_OFFSET_INPLANE=0.00
		COLL_OFFSET_CROSSPLANE=0.00
		SCAN_CURVETYPE=PDD
		SCAN_DEPTH=0.00
		SCAN_OFFAXIS_INPLANE=0.00
		SCAN_OFFAXIS_CROSSPLANE=0.00
		SCAN_ANGLE=0.00
		SCAN_DIAGONAL=NOT_DIAGONAL
		SCAN_DIRECTION=POSITIVE
		SCAN_COLOR=0
		MEAS_MEDIUM=water
		MEAS_TIME=0.00
		MEAS_UNIT=Relative dose
		BEGIN_DATA
			-230.00		4.2857E+002	10.000E+00
			-228.98		4.2825E+002	10.000E+00
			-228.47		4.2297E+002	10.000E+00
			-227.98		4.2193E+002	10.000E+00
			-227.47		4.2317E+002	10.000E+00
			-226.97		4.2219E+002	10.000E+00
			-226.46		4.2100E+002	10.000E+00
			-225.94		4.1901E+002	10.000E+00
			-225.43		4.1594E+002	10.000E+00
			-224.93		4.1561E+002	10.000E+00
			-224.43		4.1388E+002	10.000E+00
			-223.93		4.1083E+002	10.000E+00
			-223.43		4.1260E+002	10.000E+00
			-222.91		4.1001E+002	10.000E+00
			-222.40		4.0693E+002	10.000E+00
			-221.90		4.0918E+002	10.000E+00
			-221.39		4.0643E+002	10.000E+00
			-220.90		4.0473E+002	10.000E+00
			-220.39		4.0491E+002	10.000E+00
			-219.88		4.0006E+002	10.000E+00
			-219.37		3.9902E+002	10.000E+00
			-218.86		3.9986E+002	10.000E+00
			-218.35		3.9858E+002	10.000E+00
			-217.84		3.9843E+002	10.000E+00
			-217.35		3.9400E+002	10.000E+00
			-216.85		3.9440E+002	10.000E+00
			-216.34		3.9525E+002	10.000E+00
			-215.81		3.9156E+002	10.000E+00
			-215.30		3.9083E+002	10.000E+00
			-214.78		3.8969E+002	10.000E+00
			-214.26		3.8812E+002	10.000E+00
			-213.75		3.8534E+002	10.000E+00
			-213.25		3.8701E+002	10.000E+00
			-212.74		3.8391E+002	10.000E+00
			-212.25		3.8321E+002	10.000E+00
			-211.75		3.8028E+002	10.000E+00
			-211.25		3.8030E+002	10.000E+00
			-210.74		3.7903E+002	10.000E+00
			-210.22		3.7781E+002	10.000E+00
			-209.72		3.7815E+002	10.000E+00
			-209.20		3.7538E+002	10.000E+00
			-208.68		3.7505E+002	10.000E+00
			-208.17		3.7502E+002	10.000E+00
			-207.67		3.7165E+002	10.000E+00
			-207.17		3.6991E+002	10.000E+00
			-206.65		3.6805E+002	10.000E+00
			-206.14		3.6764E+002	10.000E+00
			-205.63		3.6820E+002	10.000E+00
			-205.10		3.6536E+002	10.000E+00
			-204.59		3.6642E+002	10.000E+00
			-204.08		3.6242E+002	10.000E+00
			-203.56		3.6193E+002	10.000E+00
			-203.05		3.6112E+002	10.000E+00
			-202.53		3.5770E+002	10.000E+00
			-202.02		3.5966E+002	10.000E+00
			-201.52		3.5652E+002	10.000E+00
			-201.02		3.5689E+002	10.000E+00
			-200.50		3.5448E+002	10.000E+00
			-199.98		3.5533E+002	10.000E+00
			-199.46		3.5218E+002	10.000E+00
			-198.96		3.5285E+002	10.000E+00
			-198.46		3.4940E+002	10.000E+00
			-197.96		3.4974E+002	10.000E+00
			-197.45		3.4883E+002	10.000E+00
			-196.95		3.4810E+002	10.000E+00
			-196.44		3.4663E+002	10.000E+00
			-195.92		3.4611E+002	10.000E+00
			-195.42		3.4329E+002	10.000E+00
			-194.91		3.4241E+002	10.000E+00
			-194.41		3.4341E+002	10.000E+00
			-193.90		3.4100E+002	10.000E+00
			-193.40		3.4051E+002	10.000E+00
			-192.91		3.3831E+002	10.000E+00
			-192.42		3.3687E+002	10.000E+00
			-191.90		3.3734E+002	10.000E+00
			-191.40		3.3610E+002	10.000E+00
			-190.87		3.3599E+002	10.000E+00
			-190.35		3.3250E+002	10.000E+00
			-189.84		3.3242E+002	10.000E+00
			-189.34		3.3124E+002	10.000E+00
			-188.84		3.3210E+002	10.000E+00
			-188.33		3.3042E+002	10.000E+00
			-187.82		3.2758E+002	10.000E+00
			-187.31		3.2718E+002	10.000E+00
			-186.80		3.2818E+002	10.000E+00
			-186.31		3.2682E+002	10.000E+00
			-185.82		3.2263E+002	10.000E+00
			-185.31		3.2420E+002	10.000E+00
			-184.80		3.2056E+002	10.000E+00
			-184.27		3.2137E+002	10.000E+00
			-183.75		3.1850E+002	10.000E+00
			-183.25		3.1924E+002	10.000E+00
			-182.75		3.1918E+002	10.000E+00
			-182.24		3.1836E+002	10.000E+00
			-181.73		3.1736E+002	10.000E+00
			-181.22		3.1513E+002	10.000E+00
			-180.72		3.1459E+002	10.000E+00
			-180.20		3.1168E+002	10.000E+00
			-179.70		3.1141E+002	10.000E+00
			-179.19		3.0986E+002	10.000E+00
			-178.69		3.0894E+002	10.000E+00
			-178.18		3.0841E+002	10.000E+00
			-177.67		3.0772E+002	10.000E+00
			-177.16		3.0857E+002	10.000E+00
			-176.67		3.0639E+002	10.000E+00
			-176.16		3.0341E+002	10.000E+00
			-175.65		3.0474E+002	10.000E+00
			-175.16		3.0325E+002	10.000E+00
			-174.64		3.0105E+002	10.000E+00
			-174.13		2.9905E+002	10.000E+00
			-173.62		2.9964E+002	10.000E+00
			-173.11		2.9878E+002	10.000E+00
			-172.60		2.9901E+002	10.000E+00
			-172.09		2.9866E+002	10.000E+00
			-171.59		2.9615E+002	10.000E+00
			-171.10		2.9455E+002	10.000E+00
			-170.59		2.9563E+002	10.000E+00
			-170.08		2.9316E+002	10.000E+00
			-169.59		2.9138E+002	10.000E+00
			-169.07		2.9184E+002	10.000E+00
			-168.56		2.9112E+002	10.000E+00
			-168.05		2.8899E+002	10.000E+00
			-167.54		2.8845E+002	10.000E+00
			-167.05		2.8594E+002	10.000E+00
			-166.54		2.8571E+002	10.000E+00
			-166.03		2.8701E+002	10.000E+00
			-165.55		2.8675E+002	10.000E+00
			-165.05		2.8328E+002	10.000E+00
			-164.55		2.8459E+002	10.000E+00
			-164.04		2.8252E+002	10.000E+00
			-163.54		2.8213E+002	10.000E+00
			-163.03		2.7952E+002	10.000E+00
			-162.51		2.7893E+002	10.000E+00
			-162.00		2.7949E+002	10.000E+00
			-161.49		2.7908E+002	10.000E+00
			-160.99		2.7664E+002	10.000E+00
			-160.48		2.7599E+002	10.000E+00
			-159.97		2.7728E+002	10.000E+00
			-159.47		2.7619E+002	10.000E+00
			-158.97		2.7347E+002	10.000E+00
			-158.45		2.7349E+002	10.000E+00
			-157.93		2.7140E+002	10.000E+00
			-157.42		2.7167E+002	10.000E+00
			-156.93		2.7028E+002	10.000E+00
			-156.42		2.6799E+002	10.000E+00
			-155.91		2.6825E+002	10.000E+00
			-155.39		2.6768E+002	10.000E+00
			-154.88		2.6748E+002	10.000E+00
			-154.39		2.6490E+002	10.000E+00
			-153.89		2.6588E+002	10.000E+00
			-153.37		2.6491E+002	10.000E+00
			-152.86		2.6443E+002	10.000E+00
			-152.34		2.6430E+002	10.000E+00
			-151.83		2.6205E+002	10.000E+00
			-151.32		2.6074E+002	10.000E+00
			-150.83		2.6117E+002	10.000E+00
			-150.31		2.5867E+002	10.000E+00
			-149.80		2.5933E+002	10.000E+00
			-149.29		2.5759E+002	10.000E+00
			-148.80		2.5815E+002	10.000E+00
			-148.31		2.5615E+002	10.000E+00
			-147.82		2.5507E+002	10.000E+00
			-147.31		2.5503E+002	10.000E+00
			-146.81		2.5282E+002	10.000E+00
			-146.31		2.5104E+002	10.000E+00
			-145.79		2.5169E+002	10.000E+00
			-145.28		2.5137E+002	10.000E+00
			-144.78		2.5088E+002	10.000E+00
			-144.27		2.4861E+002	10.000E+00
			-143.75		2.4653E+002	10.000E+00
			-143.25		2.4840E+002	10.000E+00
			-142.74		2.4732E+002	10.000E+00
			-142.23		2.4520E+002	10.000E+00
			-141.72		2.4594E+002	10.000E+00
			-141.22		2.4508E+002	10.000E+00
			-140.70		2.4503E+002	10.000E+00
			-140.17		2.4456E+002	10.000E+00
			-139.66		2.4259E+002	10.000E+00
			-139.16		2.4220E+002	10.000E+00
			-138.66		2.4079E+002	10.000E+00
			-138.15		2.3961E+002	10.000E+00
			-137.63		2.3956E+002	10.000E+00
			-137.12		2.3827E+002	10.000E+00
			-136.61		2.3857E+002	10.000E+00
			-136.09		2.3806E+002	10.000E+00
			-135.58		2.3595E+002	10.000E+00
			-135.06		2.3463E+002	10.000E+00
			-134.55		2.3375E+002	10.000E+00
			-134.04		2.3292E+002	10.000E+00
			-133.54		2.3331E+002	10.000E+00
			-133.05		2.3299E+002	10.000E+00
			-132.55		2.3137E+002	10.000E+00
			-132.02		2.3312E+002	10.000E+00
			-131.51		2.2851E+002	10.000E+00
			-131.00		2.2974E+002	10.000E+00
			-130.49		2.2926E+002	10.000E+00
			-129.98		2.2680E+002	10.000E+00
			-129.47		2.2957E+002	10.000E+00
			-128.97		2.2629E+002	10.000E+00
			-128.46		2.2633E+002	10.000E+00
			-127.95		2.2557E+002	10.000E+00
			-127.45		2.2362E+002	10.000E+00
			-126.95		2.2428E+002	10.000E+00
			-126.45		2.2488E+002	10.000E+00
			-125.93		2.2156E+002	10.000E+00
			-125.41		2.2252E+002	10.000E+00
			-124.91		2.2036E+002	10.000E+00
			-124.41		2.2201E+002	10.000E+00
			-123.91		2.1913E+002	10.000E+00
			-123.40		2.2132E+002	10.000E+00
			-122.89		2.1634E+002	10.000E+00
			-122.39		2.1825E+002	10.000E+00
			-121.88		2.1787E+002	10.000E+00
			-121.37		2.1646E+002	10.000E+00
			-120.85		2.1643E+002	10.000E+00
			-120.35		2.1499E+002	10.000E+00
			-119.83		2.1553E+002	10.000E+00
			-119.32		2.1272E+002	10.000E+00
			-118.82		2.1288E+002	10.000E+00
			-118.30		2.1287E+002	10.000E+00
			-117.79		2.1149E+002	10.000E+00
			-117.28		2.1248E+002	10.000E+00
			-116.76		2.1115E+002	10.000E+00
			-116.27		2.0915E+002	10.000E+00
			-115.77		2.0930E+002	10.000E+00
			-115.27		2.0823E+002	10.000E+00
			-114.77		2.0661E+002	10.000E+00
			-114.25		2.0737E+002	10.000E+00
			-113.74		2.0660E+002	10.000E+00
			-113.23		2.0506E+002	10.000E+00
			-112.71		2.0506E+002	10.000E+00
			-112.20		2.0549E+002	10.000E+00
			-111.69		2.0404E+002	10.000E+00
			-111.18		2.0287E+002	10.000E+00
			-110.67		2.0301E+002	10.000E+00
			-110.19		2.0222E+002	10.000E+00
			-109.70		2.0128E+002	10.000E+00
			-109.19		2.0059E+002	10.000E+00
			-108.68		2.0071E+002	10.000E+00
			-108.17		2.0106E+002	10.000E+00
			-107.65		1.9911E+002	10.000E+00
			-107.13		1.9809E+002	10.000E+00
			-106.61		1.9847E+002	10.000E+00
			-106.10		1.9724E+002	10.000E+00
			-105.61		1.9648E+002	10.000E+00
			-105.11		1.9589E+002	10.000E+00
			-104.60		1.9608E+002	10.000E+00
			-104.09		1.9568E+002	10.000E+00
			-103.59		1.9341E+002	10.000E+00
			-103.09		1.9349E+002	10.000E+00
			-102.58		1.9327E+002	10.000E+00
			-102.07		1.9150E+002	10.000E+00
			-101.55		1.9147E+002	10.000E+00
			-101.04		1.9040E+002	10.000E+00
			-100.54		1.8952E+002	10.000E+00
			-100.03		1.8905E+002	10.000E+00
			-99.53		1.8912E+002	10.000E+00
			-99.02		1.8804E+002	10.000E+00
			-98.51		1.8785E+002	10.000E+00
			-98.02		1.8925E+002	10.000E+00
			-97.52		1.8624E+002	10.000E+00
			-97.01		1.8607E+002	10.000E+00
			-96.50		1.8540E+002	10.000E+00
			-95.99		1.8543E+002	10.000E+00
			-95.48		1.8456E+002	10.000E+00
			-94.98		1.8443E+002	10.000E+00
			-94.47		1.8345E+002	10.000E+00
			-93.97		1.8488E+002	10.000E+00
			-93.44		1.8249E+002	10.000E+00
			-92.91		1.8163E+002	10.000E+00
			-92.41		1.8082E+002	10.000E+00
			-91.93		1.7990E+002	10.000E+00
			-91.42		1.7966E+002	10.000E+00
			-90.89		1.7939E+002	10.000E+00
			-90.38		1.7900E+002	10.000E+00
			-89.88		1.7925E+002	10.000E+00
			-89.37		1.7816E+002	10.000E+00
			-88.86		1.7662E+002	10.000E+00
			-88.34		1.7614E+002	10.000E+00
			-87.83		1.7650E+002	10.000E+00
			-87.33		1.7646E+002	10.000E+00
			-86.82		1.7645E+002	10.000E+00
			-86.33		1.7485E+002	10.000E+00
			-85.83		1.7486E+002	10.000E+00
			-85.31		1.7312E+002	10.000E+00
			-84.79		1.7265E+002	10.000E+00
			-84.28		1.7293E+002	10.000E+00
			-83.78		1.7168E+002	10.000E+00
			-83.28		1.7206E+002	10.000E+00
			-82.77		1.7042E+002	10.000E+00
			-82.27		1.7065E+002	10.000E+00
			-81.76		1.6966E+002	10.000E+00
			-81.26		1.6891E+002	10.000E+00
			-80.74		1.6820E+002	10.000E+00
			-80.23		1.6857E+002	10.000E+00
			-79.73		1.6844E+002	10.000E+00
			-79.21		1.6733E+002	10.000E+00
			-78.70		1.6705E+002	10.000E+00
			-78.19		1.6567E+002	10.000E+00
			-77.70		1.6567E+002	10.000E+00
			-77.19		1.6561E+002	10.000E+00
			-76.69		1.6522E+002	10.000E+00
			-76.19		1.6432E+002	10.000E+00
			-75.68		1.6443E+002	10.000E+00
			-75.16		1.6293E+002	10.000E+00
			-74.65		1.6276E+002	10.000E+00
			-74.14		1.6237E+002	10.000E+00
			-73.64		1.6210E+002	10.000E+00
			-73.11		1.6083E+002	10.000E+00
			-72.60		1.6033E+002	10.000E+00
			-72.11		1.6061E+002	10.000E+00
			-71.60		1.5886E+002	10.000E+00
			-71.10		1.5883E+002	10.000E+00
			-70.60		1.5839E+002	10.000E+00
			-70.09		1.5820E+002	10.000E+00
			-69.56		1.5897E+002	10.000E+00
			-69.06		1.5822E+002	10.000E+00
			-68.57		1.5557E+002	10.000E+00
			-68.07		1.5673E+002	10.000E+00
			-67.55		1.5582E+002	10.000E+00
			-67.05		1.5475E+002	10.000E+00
			-66.52		1.5481E+002	10.000E+00
			-66.00		1.5443E+002	10.000E+00
			-65.53		1.5404E+002	10.000E+00
			-65.04		1.5415E+002	10.000E+00
			-64.53		1.5317E+002	10.000E+00
			-64.02		1.5154E+002	10.000E+00
			-63.51		1.5183E+002	10.000E+00
			-63.02		1.5154E+002	10.000E+00
			-62.51		1.5078E+002	10.000E+00
			-62.00		1.5044E+002	10.000E+00
			-61.49		1.4977E+002	10.000E+00
			-60.97		1.4994E+002	10.000E+00
			-60.45		1.4876E+002	10.000E+00
			-59.95		1.4872E+002	10.000E+00
			-59.46		1.4849E+002	10.000E+00
			-58.98		1.4837E+002	10.000E+00
			-58.47		1.4690E+002	10.000E+00
			-57.96		1.4701E+002	10.000E+00
			-57.47		1.4644E+002	10.000E+00
			-56.97		1.4763E+002	10.000E+00
			-56.46		1.4577E+002	10.000E+00
			-55.94		1.4515E+002	10.000E+00
			-55.43		1.4404E+002	10.000E+00
			-54.91		1.4522E+002	10.000E+00
			-54.38		1.4409E+002	10.000E+00
			-53.87		1.4383E+002	10.000E+00
			-53.39		1.4298E+002	10.000E+00
			-52.89		1.4295E+002	10.000E+00
			-52.37		1.4206E+002	10.000E+00
			-51.86		1.4175E+002	10.000E+00
			-51.35		1.4222E+002	10.000E+00
			-50.85		1.4068E+002	10.000E+00
			-50.34		1.4014E+002	10.000E+00
			-49.83		1.3991E+002	10.000E+00
			-49.32		1.3976E+002	10.000E+00
			-48.79		1.3871E+002	10.000E+00
			-48.28		1.3839E+002	10.000E+00
			-47.78		1.3880E+002	10.000E+00
			-47.29		1.3769E+002	10.000E+00
			-46.79		1.3806E+002	10.000E+00
			-46.27		1.3799E+002	10.000E+00
			-45.76		1.3621E+002	10.000E+00
			-45.23		1.3641E+002	10.000E+00
			-44.72		1.3619E+002	10.000E+00
			-44.23		1.3592E+002	10.000E+00
			-43.72		1.3435E+002	10.000E+00
			-43.20		1.3368E+002	10.000E+00
			-42.70		1.3423E+002	10.000E+00
			-42.18		1.3365E+002	10.000E+00
			-41.66		1.3258E+002	10.000E+00
			-41.17		1.3379E+002	10.000E+00
			-40.66		1.3257E+002	10.000E+00
			-40.14		1.3194E+002	10.000E+00
			-39.62		1.3200E+002	10.000E+00
			-39.11		1.3155E+002	10.000E+00
			-38.62		1.3045E+002	10.000E+00
			-38.11		1.2980E+002	10.000E+00
			-37.60		1.2992E+002	10.000E+00
			-37.09		1.3011E+002	10.000E+00
			-36.56		1.2981E+002	10.000E+00
			-36.05		1.2891E+002	10.000E+00
			-35.54		1.2853E+002	10.000E+00
			-35.05		1.2871E+002	10.000E+00
			-34.54		1.2832E+002	10.000E+00
			-34.03		1.2765E+002	10.000E+00
			-33.53		1.2724E+002	10.000E+00
			-33.02		1.2661E+002	10.000E+00
			-32.51		1.2656E+002	10.000E+00
			-32.00		1.2693E+002	10.000E+00
			-31.49		1.2572E+002	10.000E+00
			-30.97		1.2551E+002	10.000E+00
			-30.44		1.2471E+002	10.000E+00
			-29.93		1.2519E+002	10.000E+00
			-29.43		1.2406E+002	10.000E+00
			-28.91		1.2380E+002	10.000E+00
			-28.40		1.2388E+002	10.000E+00
			-27.89		1.2289E+002	10.000E+00
			-27.39		1.2245E+002	10.000E+00
			-26.87		1.2207E+002	10.000E+00
			-26.38		1.2182E+002	10.000E+00
			-25.87		1.2143E+002	10.000E+00
			-25.36		1.2146E+002	10.000E+00
			-24.86		1.2076E+002	10.000E+00
			-24.34		1.2053E+002	10.000E+00
			-23.83		1.2015E+002	10.000E+00
			-23.32		1.2015E+002	10.000E+00
			-22.81		1.1958E+002	10.000E+00
			-22.30		1.1918E+002	10.000E+00
			-21.78		1.1880E+002	10.000E+00
			-21.30		1.1818E+002	10.000E+00
			-20.80		1.1836E+002	10.000E+00
			-20.29		1.1756E+002	10.000E+00
			-19.79		1.1733E+002	10.000E+00
			-19.29		1.1737E+002	10.000E+00
			-18.78		1.1670E+002	10.000E+00
			-18.29		1.1641E+002	10.000E+00
			-17.79		1.1544E+002	10.000E+00
			-17.29		1.1661E+002	10.000E+00
			-16.77		1.1502E+002	10.000E+00
			-16.25		1.1492E+002	10.000E+00
			-15.73		1.1431E+002	10.000E+00
			-15.25		1.1454E+002	10.000E+00
			-14.75		1.1392E+002	10.000E+00
			-14.24		1.1344E+002	10.000E+00
			-13.74		1.1333E+002	10.000E+00
			-13.23		1.1290E+002	10.000E+00
			-12.72		1.1293E+002	10.000E+00
			-12.23		1.1210E+002	10.000E+00
			-11.74		1.1227E+002	10.000E+00
			-11.22		1.1050E+002	10.000E+00
			-10.71		1.1178E+002	10.000E+00
			-10.20		1.1013E+002	10.000E+00
			-9.68		1.1077E+002	10.000E+00
			-9.18		1.1083E+002	10.000E+00
			-8.69		1.0960E+002	10.000E+00
			-8.21		1.0950E+002	10.000E+00
			-7.71		1.0893E+002	10.000E+00
			-7.17		1.0902E+002	10.000E+00
			-6.66		1.0902E+002	10.000E+00
			-6.15		1.0807E+002	10.000E+00
			-5.65		1.0753E+002	10.000E+00
			-5.18		1.0827E+002	10.000E+00
			-4.68		1.0717E+002	10.000E+00
			-4.15		1.0701E+002	10.000E+00
			-3.63		1.0656E+002	10.000E+00
			-3.13		1.0558E+002	10.000E+00
			-2.62		1.0626E+002	10.000E+00
			-2.11		1.0602E+002	10.000E+00
			-1.60		1.0623E+002	10.000E+00
			-1.09		1.0503E+002	10.000E+00
			-0.58		1.0465E+002	10.000E+00
			-0.10		1.0441E+002	10.000E+00
			0.41		1.0464E+002	10.000E+00
			0.90		1.0388E+002	10.000E+00
			1.42		1.0325E+002	10.000E+00
			1.92		1.0404E+002	10.000E+00
			2.45		1.0311E+002	10.000E+00
			2.97		1.0308E+002	10.000E+00
			3.47		1.0230E+002	10.000E+00
			3.95		1.0286E+002	10.000E+00
			4.45		1.0184E+002	10.000E+00
			4.95		1.0209E+002	10.000E+00
			5.46		1.0158E+002	10.000E+00
			5.98		1.0070E+002	10.000E+00
			6.49		1.0098E+002	10.000E+00
			6.99		1.0009E+002	10.000E+00
			7.49		9.9926E+001	10.000E+00
			7.99		9.9367E+001	10.000E+00
			8.52		9.9528E+001	10.000E+00
			9.03		9.8714E+001	10.000E+00
			9.52		9.8907E+001	10.000E+00
			10.02		9.8630E+001	10.000E+00
			10.53		9.8881E+001	10.000E+00
			11.04		9.8227E+001	10.000E+00
			11.53		9.8017E+001	10.000E+00
			12.02		9.6484E+001	10.000E+00
			12.52		9.7315E+001	10.000E+00
			13.01		9.7581E+001	10.000E+00
			13.53		9.6620E+001	10.000E+00
			14.05		9.6724E+001	10.000E+00
			14.57		9.6125E+001	10.000E+00
			15.08		9.6131E+001	10.000E+00
			15.58		9.5426E+001	10.000E+00
			16.08		9.5418E+001	10.000E+00
			16.58		9.4476E+001	10.000E+00
			17.10		9.5276E+001	10.000E+00
			17.61		9.4381E+001	10.000E+00
			18.11		9.4315E+001	10.000E+00
			18.62		9.4215E+001	10.000E+00
			19.12		9.4060E+001	10.000E+00
			19.62		9.3467E+001	10.000E+00
			20.13		9.2543E+001	10.000E+00
			20.64		9.2530E+001	10.000E+00
			21.14		9.2510E+001	10.000E+00
			21.63		9.2087E+001	10.000E+00
			22.13		9.1514E+001	10.000E+00
			22.65		9.1865E+001	10.000E+00
			23.16		9.1324E+001	10.000E+00
			23.66		9.0805E+001	10.000E+00
			24.18		9.0587E+001	10.000E+00
			24.68		9.0139E+001	10.000E+00
			25.18		9.0541E+001	10.000E+00
			25.70		8.9679E+001	10.000E+00
			26.20		8.9733E+001	10.000E+00
			26.71		8.9963E+001	10.000E+00
			27.22		8.9565E+001	10.000E+00
			27.73		8.8911E+001	10.000E+00
			28.24		8.8892E+001	10.000E+00
			28.76		8.8299E+001	10.000E+00
			29.28		8.8400E+001	10.000E+00
			29.80		8.8006E+001	10.000E+00
			30.30		8.7422E+001	10.000E+00
			30.81		8.7360E+001	10.000E+00
			31.32		8.7022E+001	10.000E+00
			31.83		8.7195E+001	10.000E+00
			32.34		8.6558E+001	10.000E+00
			32.84		8.6710E+001	10.000E+00
			33.33		8.5745E+001	10.000E+00
			33.86		8.6079E+001	10.000E+00
			34.37		8.5961E+001	10.000E+00
			34.89		8.5665E+001	10.000E+00
			35.41		8.5104E+001	10.000E+00
			35.90		8.5555E+001	10.000E+00
			36.41		8.4977E+001	10.000E+00
			36.92		8.4756E+001	10.000E+00
			37.43		8.3961E+001	10.000E+00
			37.94		8.3646E+001	10.000E+00
			38.43		8.4162E+001	10.000E+00
			38.94		8.3560E+001	10.000E+00
			39.44		8.3130E+001	10.000E+00
			39.95		8.2898E+001	10.000E+00
			40.49		8.3425E+001	10.000E+00
			40.99		8.2715E+001	10.000E+00
			41.49		8.2284E+001	10.000E+00
			41.98		8.2268E+001	10.000E+00
			42.50		8.1109E+001	10.000E+00
			43.01		8.1145E+001	10.000E+00
			43.53		8.1110E+001	10.000E+00
			44.03		8.1051E+001	10.000E+00
			44.54		8.1195E+001	10.000E+00
			45.05		8.1011E+001	10.000E+00
			45.56		8.0648E+001	10.000E+00
			46.08		7.9677E+001	10.000E+00
			46.59		8.0255E+001	10.000E+00
			47.10		7.9503E+001	10.000E+00
			47.60		7.9745E+001	10.000E+00
			48.10		7.9164E+001	10.000E+00
			48.60		7.9447E+001	10.000E+00
			49.09		7.9455E+001	10.000E+00
			49.60		7.8762E+001	10.000E+00
			50.09		7.8703E+001	10.000E+00
			50.59		7.7829E+001	10.000E+00
			51.10		7.7570E+001	10.000E+00
			51.61		7.7775E+001	10.000E+00
			52.12		7.7330E+001	10.000E+00
			52.65		7.7383E+001	10.000E+00
			53.17		7.7338E+001	10.000E+00
			53.67		7.6647E+001	10.000E+00
			54.16		7.6389E+001	10.000E+00
			54.67		7.5773E+001	10.000E+00
			55.18		7.6334E+001	10.000E+00
			55.69		7.6270E+001	10.000E+00
			56.20		7.5479E+001	10.000E+00
			56.70		7.5571E+001	10.000E+00
			57.22		7.4638E+001	10.000E+00
			57.71		7.4794E+001	10.000E+00
			58.21		7.4691E+001	10.000E+00
			58.72		7.4932E+001	10.000E+00
			59.25		7.4525E+001	10.000E+00
			59.76		7.3840E+001	10.000E+00
			60.26		7.3795E+001	10.000E+00
			60.76		7.3975E+001	10.000E+00
			61.27		7.3923E+001	10.000E+00
			61.78		7.2825E+001	10.000E+00
			62.29		7.2810E+001	10.000E+00
			62.81		7.3295E+001	10.000E+00
			63.31		7.3441E+001	10.000E+00
			63.82		7.2823E+001	10.000E+00
			64.33		7.2362E+001	10.000E+00
			64.85		7.2440E+001	10.000E+00
			65.35		7.1368E+001	10.000E+00
			65.85		7.1772E+001	10.000E+00
			66.36		7.1819E+001	10.000E+00
			66.87		7.1077E+001	10.000E+00
			67.38		7.1175E+001	10.000E+00
			67.90		7.0664E+001	10.000E+00
			68.41		7.1256E+001	10.000E+00
			68.92		7.0939E+001	10.000E+00
			69.43		7.0598E+001	10.000E+00
			69.93		6.9956E+001	10.000E+00
			70.43		7.0377E+001	10.000E+00
			70.94		6.9702E+001	10.000E+00
			71.45		6.9287E+001	10.000E+00
			71.94		6.9870E+001	10.000E+00
			72.44		6.8722E+001	10.000E+00
			72.93		6.9292E+001	10.000E+00
			73.44		6.8675E+001	10.000E+00
			73.94		6.8773E+001	10.000E+00
			74.45		6.8138E+001	10.000E+00
			74.95		6.8172E+001	10.000E+00
			75.45		6.7698E+001	10.000E+00
			75.97		6.7739E+001	10.000E+00
			76.48		6.7738E+001	10.000E+00
			76.99		6.7728E+001	10.000E+00
			77.51		6.7266E+001	10.000E+00
			78.00		6.7300E+001	10.000E+00
			78.52		6.6878E+001	10.000E+00
			79.01		6.6606E+001	10.000E+00
			79.52		6.6589E+001	10.000E+00
			80.04		6.6562E+001	10.000E+00
			80.57		6.6519E+001	10.000E+00
			81.08		6.6151E+001	10.000E+00
			81.61		6.5859E+001	10.000E+00
			82.10		6.5441E+001	10.000E+00
			82.59		6.5369E+001	10.000E+00
			83.09		6.5106E+001	10.000E+00
			83.59		6.5118E+001	10.000E+00
			84.10		6.4686E+001	10.000E+00
			84.59		6.4647E+001	10.000E+00
			85.12		6.4586E+001	10.000E+00
			85.64		6.4122E+001	10.000E+00
			86.15		6.4051E+001	10.000E+00
			86.66		6.3591E+001	10.000E+00
			87.18		6.3803E+001	10.000E+00
			87.69		6.3220E+001	10.000E+00
			88.19		6.3173E+001	10.000E+00
			88.69		6.3138E+001	10.000E+00
			89.17		6.3022E+001	10.000E+00
			89.68		6.2977E+001	10.000E+00
			90.18		6.2556E+001	10.000E+00
			90.67		6.2889E+001	10.000E+00
			91.19		6.1805E+001	10.000E+00
			91.68		6.2385E+001	10.000E+00
			92.18		6.1775E+001	10.000E+00
			92.70		6.1605E+001	10.000E+00
			93.22		6.1477E+001	10.000E+00
			93.74		6.1007E+001	10.000E+00
			94.22		6.1470E+001	10.000E+00
			94.73		6.1168E+001	10.000E+00
			95.24		6.0822E+001	10.000E+00
			95.76		6.0656E+001	10.000E+00
			96.27		6.0447E+001	10.000E+00
			96.77		6.0046E+001	10.000E+00
			97.26		6.0376E+001	10.000E+00
			97.79		6.0061E+001	10.000E+00
			98.31		5.9698E+001	10.000E+00
			98.82		5.9941E+001	10.000E+00
			99.32		5.9966E+001	10.000E+00
			99.85		5.9001E+001	10.000E+00
			100.36		5.9547E+001	10.000E+00
			100.86		5.8689E+001	10.000E+00
			101.35		5.8721E+001	10.000E+00
			101.85		5.8883E+001	10.000E+00
			102.37		5.8288E+001	10.000E+00
			102.86		5.8897E+001	10.000E+00
			103.36		5.8066E+001	10.000E+00
			103.86		5.7984E+001	10.000E+00
			104.38		5.8167E+001	10.000E+00
			104.91		5.7505E+001	10.000E+00
			105.42		5.7268E+001	10.000E+00
			105.93		5.7106E+001	10.000E+00
			106.44		5.7410E+001	10.000E+00
			106.94		5.7431E+001	10.000E+00
			107.45		5.7146E+001	10.000E+00
			107.96		5.6564E+001	10.000E+00
			108.48		5.6227E+001	10.000E+00
			108.98		5.6231E+001	10.000E+00
			109.48		5.6185E+001	10.000E+00
			109.99		5.6255E+001	10.000E+00
			110.50		5.5764E+001	10.000E+00
			111.01		5.6126E+001	10.000E+00
			111.51		5.5614E+001	10.000E+00
			112.02		5.5233E+001	10.000E+00
			112.54		5.5301E+001	10.000E+00
			113.05		5.5040E+001	10.000E+00
			113.58		5.4662E+001	10.000E+00
			114.08		5.4959E+001	10.000E+00
			114.56		5.4807E+001	10.000E+00
			115.04		5.4396E+001	10.000E+00
			115.56		5.4525E+001	10.000E+00
			116.07		5.4081E+001	10.000E+00
			116.56		5.4239E+001	10.000E+00
			117.07		5.4182E+001	10.000E+00
			117.57		5.3915E+001	10.000E+00
			118.08		5.3667E+001	10.000E+00
			118.57		5.3372E+001	10.000E+00
			119.07		5.3442E+001	10.000E+00
			119.59		5.3306E+001	10.000E+00
			120.10		5.2942E+001	10.000E+00
			120.60		5.2706E+001	10.000E+00
			121.11		5.2555E+001	10.000E+00
			121.61		5.2517E+001	10.000E+00
			122.11		5.2664E+001	10.000E+00
			122.61		5.2106E+001	10.000E+00
			123.10		5.2042E+001	10.000E+00
			123.60		5.2230E+001	10.000E+00
			124.10		5.1832E+001	10.000E+00
			124.61		5.1694E+001	10.000E+00
			125.12		5.1454E+001	10.000E+00
			125.63		5.1612E+001	10.000E+00
			126.15		5.1518E+001	10.000E+00
			126.65		5.1542E+001	10.000E+00
			127.16		5.1152E+001	10.000E+00
			127.67		5.0806E+001	10.000E+00
			128.17		5.0926E+001	10.000E+00
			128.67		5.0838E+001	10.000E+00
			129.18		5.0686E+001	10.000E+00
			129.68		5.0013E+001	10.000E+00
			130.18		5.0255E+001	10.000E+00
			130.68		5.0155E+001	10.000E+00
			131.18		4.9863E+001	10.000E+00
			131.69		4.9716E+001	10.000E+00
			132.22		4.9946E+001	10.000E+00
			132.72		4.9238E+001	10.000E+00
			133.21		4.9335E+001	10.000E+00
			133.70		4.9201E+001	10.000E+00
			134.19		4.8914E+001	10.000E+00
			134.70		4.8919E+001	10.000E+00
			135.20		4.8823E+001	10.000E+00
			135.70		4.8802E+001	10.000E+00
			136.21		4.8318E+001	10.000E+00
			136.72		4.8486E+001	10.000E+00
			137.21		4.8306E+001	10.000E+00
			137.72		4.8151E+001	10.000E+00
			138.26		4.8500E+001	10.000E+00
			138.77		4.8171E+001	10.000E+00
			139.27		4.7768E+001	10.000E+00
			139.78		4.7605E+001	10.000E+00
			140.29		4.7528E+001	10.000E+00
			140.81		4.7392E+001	10.000E+00
			141.31		4.7364E+001	10.000E+00
			141.80		4.6907E+001	10.000E+00
			142.30		4.6554E+001	10.000E+00
			142.81		4.6859E+001	10.000E+00
			143.34		4.6852E+001	10.000E+00
			143.87		4.6746E+001	10.000E+00
			144.38		4.7092E+001	10.000E+00
			144.87		4.6281E+001	10.000E+00
			145.36		4.6295E+001	10.000E+00
			145.86		4.5985E+001	10.000E+00
			146.37		4.5993E+001	10.000E+00
			146.88		4.5799E+001	10.000E+00
			147.38		4.5724E+001	10.000E+00
			147.89		4.5622E+001	10.000E+00
			148.41		4.5637E+001	10.000E+00
			148.93		4.5262E+001	10.000E+00
			149.42		4.5099E+001	10.000E+00
			149.94		4.5305E+001	10.000E+00
			150.47		4.5283E+001	10.000E+00
			150.99		4.4803E+001	10.000E+00
			151.47		4.4560E+001	10.000E+00
			151.97		4.5007E+001	10.000E+00
			152.48		4.4568E+001	10.000E+00
			152.98		4.4347E+001	10.000E+00
			153.50		4.4457E+001	10.000E+00
			154.00		4.4099E+001	10.000E+00
			154.53		4.4204E+001	10.000E+00
			155.04		4.3892E+001	10.000E+00
			155.56		4.4090E+001	10.000E+00
			156.07		4.3607E+001	10.000E+00
			156.55		4.3641E+001	10.000E+00
			157.05		4.3462E+001	10.000E+00
			157.54		4.2957E+001	10.000E+00
			158.06		4.3697E+001	10.000E+00
			158.58		4.3206E+001	10.000E+00
			159.09		4.3083E+001	10.000E+00
			159.59		4.2724E+001	10.000E+00
			160.08		4.2687E+001	10.000E+00
			160.59		4.2476E+001	10.000E+00
			161.11		4.2778E+001	10.000E+00
			161.62		4.2493E+001	10.000E+00
			162.11		4.2369E+001	10.000E+00
			162.63		4.1983E+001	10.000E+00
			163.13		4.1657E+001	10.000E+00
			163.65		4.2279E+001	10.000E+00
			164.17		4.1401E+001	10.000E+00
			164.67		4.1442E+001	10.000E+00
			165.17		4.1439E+001	10.000E+00
			165.68		4.1113E+001	10.000E+00
			166.20		4.1354E+001	10.000E+00
			166.70		4.1433E+001	10.000E+00
			167.23		4.0847E+001	10.000E+00
			167.73		4.0811E+001	10.000E+00
			168.24		4.0633E+001	10.000E+00
			168.74		4.0742E+001	10.000E+00
			169.25		4.0559E+001	10.000E+00
			169.74		4.0625E+001	10.000E+00
			170.25		4.0365E+001	10.000E+00
			170.77		4.0046E+001	10.000E+00
			171.27		4.0204E+001	10.000E+00
			171.77		3.9679E+001	10.000E+00
			172.28		4.0022E+001	10.000E+00
			172.78		3.9826E+001	10.000E+00
			173.30		3.9974E+001	10.000E+00
			173.79		3.9600E+001	10.000E+00
			174.27		3.9307E+001	10.000E+00
			174.78		3.9504E+001	10.000E+00
			175.29		3.9388E+001	10.000E+00
			175.82		3.9416E+001	10.000E+00
			176.32		3.9362E+001	10.000E+00
			176.83		3.9231E+001	10.000E+00
			177.34		3.9065E+001	10.000E+00
			177.84		3.8496E+001	10.000E+00
			178.34		3.8288E+001	10.000E+00
			178.86		3.8727E+001	10.000E+00
			179.37		3.8578E+001	10.000E+00
			179.88		3.8510E+001	10.000E+00
			180.37		3.8519E+001	10.000E+00
			180.87		3.8078E+001	10.000E+00
			181.37		3.7967E+001	10.000E+00
			181.87		3.8381E+001	10.000E+00
			182.41		3.7908E+001	10.000E+00
			182.96		3.7796E+001	10.000E+00
			183.47		3.7930E+001	10.000E+00
			183.96		3.7492E+001	10.000E+00
			184.45		3.7420E+001	10.000E+00
			184.96		3.7449E+001	10.000E+00
			185.48		3.7350E+001	10.000E+00
			185.98		3.7245E+001	10.000E+00
			186.46		3.7145E+001	10.000E+00
			186.97		3.7053E+001	10.000E+00
			187.48		3.6698E+001	10.000E+00
			188.00		3.6864E+001	10.000E+00
			188.51		3.6376E+001	10.000E+00
			189.01		3.6850E+001	10.000E+00
			189.50		3.6426E+001	10.000E+00
			190.00		3.6502E+001	10.000E+00
			190.52		3.6308E+001	10.000E+00
			191.05		3.6209E+001	10.000E+00
			191.57		3.6234E+001	10.000E+00
			192.07		3.6109E+001	10.000E+00
			192.54		3.5713E+001	10.000E+00
			193.03		3.5643E+001	10.000E+00
			193.53		3.5647E+001	10.000E+00
			194.03		3.5786E+001	10.000E+00
			194.55		3.5369E+001	10.000E+00
			195.08		3.5652E+001	10.000E+00
			195.61		3.5376E+001	10.000E+00
			196.10		3.5397E+001	10.000E+00
			196.60		3.5083E+001	10.000E+00
			197.10		3.5152E+001	10.000E+00
			197.60		3.4862E+001	10.000E+00
			198.10		3.5048E+001	10.000E+00
			198.59		3.4835E+001	10.000E+00
			199.08		3.4810E+001	10.000E+00
			199.59		3.4822E+001	10.000E+00
			200.11		3.4908E+001	10.000E+00
			200.63		3.4382E+001	10.000E+00
			201.16		3.4301E+001	10.000E+00
			201.65		3.4102E+001	10.000E+00
			202.11		3.4035E+001	10.000E+00
