BEGIN_SCAN_DATA
	FORMAT=CC-Export V1.9
	FILE_CREATION_DATE=4-Oct-2012 15:21:50
	LAST_MODIFIED=4-Oct-2012 15:21:50
	BEGIN_SCAN   1
		TASK_NAME=DOSERATE
		PROGRAM=BistroMath.exe v2.20(alfa-release) (build 276)
		COMMENT=4-10-2012
		MEAS_DATE=4-Oct-2012 15:19:28
		LINAC=Titan
		MODALITY=P
		ISOCENTER=1000.0
		INPLANE_AXIS=X
		CROSSPLANE_AXIS=Y
		DEPTH_AXIS=Z
		INPLANE_AXIS_DIR=GUN_TARGET
		CROSSPLANE_AXIS_DIR=LEFT_RIGHT
		DEPTH_AXIS_DIR=UP_DOWN
		ENERGY=6.00
		NOMINAL_DMAX=15.00
		SSD=950.00
		SCD=380.00
		BLOCK=0
		WEDGE_ANGLE=0.00
		FIELD_INPLANE=400.00
		FIELD_CROSSPLANE=400.00
		FIELD_TYPE=RECTANGULAR
		GANTRY=0.00
		GANTRY_UPRIGHT_POSITION=0.00
		GANTRY_ROTATION=CW
		COLL_ANGLE=0.00
		COLL_OFFSET_INPLANE=0.00
		COLL_OFFSET_CROSSPLANE=0.00
		SCAN_DEVICE=STARCHECKMAXI
		ELECTROMETER=2D_ARRAY_INTERFACE
		RANGE_FIELD=AUTO
		RANGE_REFERENCE=AUTO
		DETECTOR=STARCHECKMAXI
		DETECTOR_SUBCODE=FLEX
		DETECTOR_RADIUS=3.00
		DETECTOR_SN=0
		DETECTOR_CALIBRATION=1.00
		DETECTOR_IS_CALIBRATED=0
		DETECTOR_HV=300.00
		DETECTOR_REFERENCE=THIMBLE_CHAMBER
		DETECTOR_REFERENCE_SUBCODE=FLEX
		DETECTOR_REFERENCE_RADIUS=3.00
		DETECTOR_REFERENCE_SN=0
		DETECTOR_REFERENCE_CALIBRATION=1.00
		DETECTOR_REFERENCE_IS_CALIBRATED=0
		DETECTOR_REFERENCE_HV=300.00
		REF_FIELD_DEPTH=100.00
		REF_FIELD_DEFINED=ISOCENTER
		REF_FIELD_INPLANE=100.00
		REF_FIELD_CROSSPLANE=100.00
		REF_OVERSCAN_FACTOR=1.00
		MEAS_PRESET=TIME_PRESET
		PRESSURE=1013.25
		TEMPERATURE=20.00
		NORM_TEMPERATURE=22.00
		CORRECTION_FACTOR=1.00
		EXPECTED_MAX_DOSE_RATE=6.00
		GUID={BAD91BB1-133D-4a50-8F3D-2DCE43AA789C}
		DRAG_AND_DROP_STATUS=0
		SCAN_CURVETYPE=CROSSPLANE_PROFILE
		SCAN_DEPTH=50.00
		SCAN_OFFAXIS_INPLANE=0.00
		SCAN_OFFAXIS_CROSSPLANE=0.00
		SCAN_ANGLE=0.00
		SCAN_DIAGONAL=NOT_DIAGONAL
		SCAN_DIRECTION=POSITIVE
		SCAN_COLOR=0
		MEAS_MEDIUM=WATER
		MEAS_TIME=0.40
		MEAS_UNIT=Gy/min
		BEGIN_DATA
			-210.00		5.8296E-001	10.000E+00
			-207.00		7.6113E-001	10.000E+00
			-204.00		1.2024E+000	10.000E+00
			-201.00		2.1631E+000	10.000E+00
			-198.00		3.3168E+000	10.000E+00
			-195.00		4.0337E+000	10.000E+00
			-192.00		4.2924E+000	10.000E+00
			-189.00		4.3901E+000	10.000E+00
			-186.00		4.4425E+000	10.000E+00
			-183.00		4.4765E+000	10.000E+00
			-180.00		4.5007E+000	10.000E+00
			-177.00		4.5186E+000	10.000E+00
			-174.00		4.5332E+000	10.000E+00
			-171.00		4.5439E+000	10.000E+00
			-168.00		4.5526E+000	10.000E+00
			-165.00		4.5670E+000	10.000E+00
			-162.00		4.5841E+000	10.000E+00
			-159.00		4.5945E+000	10.000E+00
			-156.00		4.6000E+000	10.000E+00
			-153.00		4.6056E+000	10.000E+00
			-150.00		4.6072E+000	10.000E+00
			-147.00		4.6011E+000	10.000E+00
			-144.00		4.5950E+000	10.000E+00
			-141.00		4.5950E+000	10.000E+00
			-138.00		4.5980E+000	10.000E+00
			-135.00		4.5987E+000	10.000E+00
			-132.00		4.5960E+000	10.000E+00
			-129.00		4.5928E+000	10.000E+00
			-126.00		4.5881E+000	10.000E+00
			-123.00		4.5831E+000	10.000E+00
			-120.00		4.5801E+000	10.000E+00
			-117.00		4.5747E+000	10.000E+00
			-114.00		4.5678E+000	10.000E+00
			-111.00		4.5623E+000	10.000E+00
			-108.00		4.5575E+000	10.000E+00
			-105.00		4.5543E+000	10.000E+00
			-102.00		4.5530E+000	10.000E+00
			-99.00		4.5521E+000	10.000E+00
			-96.00		4.5516E+000	10.000E+00
			-93.00		4.5554E+000	10.000E+00
			-90.00		4.5625E+000	10.000E+00
			-87.00		4.5672E+000	10.000E+00
			-84.00		4.5714E+000	10.000E+00
			-81.00		4.5742E+000	10.000E+00
			-78.00		4.5717E+000	10.000E+00
			-75.00		4.5705E+000	10.000E+00
			-72.00		4.5720E+000	10.000E+00
			-69.00		4.5734E+000	10.000E+00
			-66.00		4.5761E+000	10.000E+00
			-63.00		4.5782E+000	10.000E+00
			-60.00		4.5800E+000	10.000E+00
			-57.00		4.5811E+000	10.000E+00
			-54.00		4.5798E+000	10.000E+00
			-51.00		4.5767E+000	10.000E+00
			-48.00		4.5701E+000	10.000E+00
			-45.00		4.5643E+000	10.000E+00
			-42.00		4.5642E+000	10.000E+00
			-39.00		4.5652E+000	10.000E+00
			-36.00		4.5627E+000	10.000E+00
			-33.00		4.5596E+000	10.000E+00
			-30.00		4.5585E+000	10.000E+00
			-27.00		4.5599E+000	10.000E+00
			-24.00		4.5620E+000	10.000E+00
			-21.00		4.5657E+000	10.000E+00
			-18.00		4.5717E+000	10.000E+00
			-15.00		4.5764E+000	10.000E+00
			-12.00		4.5760E+000	10.000E+00
			-9.00		4.5711E+000	10.000E+00
			-6.00		4.5686E+000	10.000E+00
			6.00		4.5798E+000	10.000E+00
			9.00		4.5828E+000	10.000E+00
			12.00		4.5815E+000	10.000E+00
			15.00		4.5783E+000	10.000E+00
			18.00		4.5764E+000	10.000E+00
			21.00		4.5751E+000	10.000E+00
			24.00		4.5728E+000	10.000E+00
			27.00		4.5695E+000	10.000E+00
			30.00		4.5687E+000	10.000E+00
			33.00		4.5671E+000	10.000E+00
			36.00		4.5638E+000	10.000E+00
			39.00		4.5631E+000	10.000E+00
			42.00		4.5647E+000	10.000E+00
			45.00		4.5671E+000	10.000E+00
			48.00		4.5723E+000	10.000E+00
			51.00		4.5800E+000	10.000E+00
			54.00		4.5779E+000	10.000E+00
			57.00		4.5659E+000	10.000E+00
			60.00		4.5595E+000	10.000E+00
			63.00		4.5584E+000	10.000E+00
			66.00		4.5592E+000	10.000E+00
			69.00		4.5618E+000	10.000E+00
			72.00		4.5630E+000	10.000E+00
			75.00		4.5635E+000	10.000E+00
			78.00		4.5623E+000	10.000E+00
			81.00		4.5614E+000	10.000E+00
			84.00		4.5628E+000	10.000E+00
			87.00		4.5654E+000	10.000E+00
			90.00		4.5673E+000	10.000E+00
			93.00		4.5666E+000	10.000E+00
			96.00		4.5665E+000	10.000E+00
			99.00		4.5655E+000	10.000E+00
			102.00		4.5612E+000	10.000E+00
			105.00		4.5585E+000	10.000E+00
			108.00		4.5617E+000	10.000E+00
			111.00		4.5691E+000	10.000E+00
			114.00		4.5751E+000	10.000E+00
			117.00		4.5778E+000	10.000E+00
			120.00		4.5799E+000	10.000E+00
			123.00		4.5833E+000	10.000E+00
			126.00		4.5872E+000	10.000E+00
			129.00		4.5925E+000	10.000E+00
			132.00		4.5976E+000	10.000E+00
			135.00		4.6010E+000	10.000E+00
			138.00		4.6034E+000	10.000E+00
			141.00		4.6055E+000	10.000E+00
			144.00		4.6075E+000	10.000E+00
			147.00		4.6064E+000	10.000E+00
			150.00		4.6003E+000	10.000E+00
			153.00		4.5921E+000	10.000E+00
			156.00		4.5884E+000	10.000E+00
			159.00		4.5877E+000	10.000E+00
			162.00		4.5817E+000	10.000E+00
			165.00		4.5707E+000	10.000E+00
			168.00		4.5632E+000	10.000E+00
			171.00		4.5560E+000	10.000E+00
			174.00		4.5400E+000	10.000E+00
			177.00		4.5207E+000	10.000E+00
			180.00		4.5044E+000	10.000E+00
			183.00		4.4854E+000	10.000E+00
			186.00		4.4548E+000	10.000E+00
			189.00		4.4033E+000	10.000E+00
			192.00		4.3006E+000	10.000E+00
			195.00		3.9800E+000	10.000E+00
			198.00		3.1442E+000	10.000E+00
			201.00		1.9759E+000	10.000E+00
			204.00		1.1262E+000	10.000E+00
			207.00		7.5641E-001	10.000E+00
			210.00		5.8797E-001	10.000E+00
		END_DATA
	END_SCAN   1
END_SCAN_DATA
