BEGIN_SCAN_DATA
	FORMAT=CC-Export V1.9                  
	FILE_CREATION_DATE=16-Oct-2014 15:45:43
	LAST_MODIFIED=16-Oct-2014 15:45:43
	BEGIN_SCAN  1
		TASK_NAME=tba PDD Profiles
		PROGRAM=tbaScan
		MEAS_DATE=16-Oct-2014 15:41:57
		LINAC=ORION
		MODALITY=X
		ISOCENTER=1000.00
		INPLANE_AXIS=Inplane
		CROSSPLANE_AXIS=Crossplane
		DEPTH_AXIS=Depth
		INPLANE_AXIS_DIR=GUN_TARGET
		CROSSPLANE_AXIS_DIR=LEFT_RIGHT
		DEPTH_AXIS_DIR=UP_DOWN
		ENERGY=10.00
		NOMINAL_DMAX=21.00
		SSD=900.00
		SCD=450.00
		BLOCK=0
		WEDGE=WIG
		FIELD_INPLANE=100.00
		FIELD_CROSSPLANE=100.00
		FIELD_TYPE=RECTANGULAR
		GANTRY=0.00
		GANTRY_UPRIGHT_POSITION=0
		GANTRY_ROTATION=CW
		COLL_ANGLE=0.00
		COLL_OFFSET_INPLANE=0.00
		COLL_OFFSET_CROSSPLANE=0.00
		SCAN_DEVICE=MP3
		SCAN_DEVICE_SETUP=BARA_TARGET_GUN
		ELECTROMETER=TANDEM
		RANGE_FIELD=AUTO
		RANGE_REFERENCE=AUTO
		DETECTOR=THIMBLE_CHAMBER
		DETECTOR_SUBCODE=SEMIFLEX
		DETECTOR_RADIUS=2.75
		DETECTOR_NAME=PTW 31010 Semiflex MZH2
		DETECTOR_SN=4517
		DETECTOR_CALIBRATION=300800000.00
		DETECTOR_IS_CALIBRATED=1
		DETECTOR_REFERENCE=THIMBLE_CHAMBER
		DETECTOR_REFERENCE_SUBCODE=SEMIFLEX
		DETECTOR_REFERENCE_RADIUS=2.75
		DETECTOR_REFERENCE_NAME=PTW 31010 Semiflex MZH1
		DETECTOR_REFERENCE_SN=4516
		DETECTOR_REFERENCE_IS_CALIBRATED=1
		DETECTOR_REFERENCE_CALIBRATION=302100000.00
		REF_FIELD_DEPTH=100.00
		REF_FIELD_DEFINED=ISOCENTER
		REF_FIELD_INPLANE=100.00
		REF_FIELD_CROSSPLANE=100.00
		REF_SCAN_POSITIONS=-80.00;-78.00;-76.00;-74.00;-72.00;-70.00;-68.00;-66.00;-64.00;-62.00;-60.00;-59.00;-58.00;-57.00;-56.00;-55.00;-54.00;-53.00;-52.00;-51.00;-50.00;-49.00;-48.00;-47.00;-46.00;-45.00;-44.00;-43.00;-42.00;-41.00;-40.00;-36.00;-32.00;-28.00;-24.00;-20.00;-16.00;-12.00;-8.00;-4.00;0.00;4.00;8.00;12.00;16.00;20.00;24.00;28.00;32.00;36.00;40.00;41.00;42.00;43.00;44.00;45.00;46.00;47.00;48.00;49.00;50.00;51.00;52.00;53.00;54.00;55.00;56.00;57.00;58.00;59.00;60.00;62.00;64.00;66.00;68.00;70.00;72.00;74.00;76.00;78.00;80.00;
		REF_OVERSCAN_FACTOR=1.00
		SCAN_CURVETYPE=INPLANE_PROFILE
		SCAN_DEPTH=100.00
		SCAN_OFFAXIS_INPLANE=0.00
		SCAN_OFFAXIS_CROSSPLANE=0.00
		SCAN_ANGLE=0.00
		SCAN_DIAGONAL=NOT_DIAGONAL
		SCAN_DIRECTION=POSITIVE
		MEAS_MEDIUM=WATER
		MEAS_PRESET=REFERENCE_DOSEMETER
		MEAS_TIME=0.500
		MEAS_UNIT=A.U.
		SCAN_SPEEDS=20.00; 8.00;40.00; 25.00;100.00; 40.00;400.00; 50.00;
		DELAY_TIMES=20.00; 0.000;150.00; 0.000;400.00; 0.000;
		PRESSURE=1013.25
		TEMPERATURE=20.00
		NORM_TEMPERATURE=20.00
		CORRECTION_FACTOR=1.0000
		EXPECTED_MAX_DOSE_RATE=3.00
		BEGIN_DATA
			-80.00		8.3579E-03		7.9682E+00
			-78.00		8.7656E-03		7.9682E+00
			-76.00		9.4148E-03		7.9555E+00
			-74.00		10.086E-03		7.9628E+00
			-72.00		10.814E-03		7.9609E+00
			-70.00		11.602E-03		7.9646E+00
			-68.00		12.540E-03		7.9591E+00
			-66.00		13.710E-03		7.9646E+00
			-64.00		15.360E-03		7.9664E+00
			-62.00		17.634E-03		7.9628E+00
			-60.00		21.694E-03		7.9700E+00
			-59.00		24.536E-03		7.9736E+00
			-58.00		28.817E-03		7.9791E+00
			-57.00		35.211E-03		7.9754E+00
			-56.00		44.866E-03		7.9809E+00
			-55.00		58.404E-03		7.9881E+00
			-54.00		75.152E-03		7.9827E+00
			-53.00		92.155E-03		8.0081E+00
			-52.00		109.80E-03		7.9918E+00
			-51.00		125.04E-03		7.9936E+00
			-50.00		137.56E-03		7.9809E+00
			-49.00		146.63E-03		7.9881E+00
			-48.00		152.04E-03		8.0171E+00
			-47.00		155.82E-03		8.0117E+00
			-46.00		157.38E-03		7.9918E+00
			-45.00		158.91E-03		7.9809E+00
			-44.00		159.16E-03		7.9954E+00
			-43.00		159.14E-03		8.0008E+00
			-42.00		158.62E-03		8.0135E+00
			-41.00		158.46E-03		8.0171E+00
			-40.00		158.33E-03		8.0189E+00
			-36.00		155.79E-03		8.0226E+00
			-32.00		152.28E-03		8.0298E+00
			-28.00		148.63E-03		8.0461E+00
			-24.00		144.83E-03		8.0226E+00
			-20.00		141.42E-03		8.0298E+00
			-16.00		138.02E-03		8.0443E+00
			-12.00		133.75E-03		8.0516E+00
			-8.00		130.45E-03		8.0316E+00
			-4.00		125.18E-03		8.0606E+00
			0.00		122.22E-03		8.0461E+00
			4.00		118.58E-03		8.0606E+00
			8.00		114.82E-03		8.0570E+00
			12.00		111.49E-03		8.0534E+00
			16.00		107.11E-03		8.0461E+00
			20.00		103.52E-03		8.0407E+00
			24.00		99.906E-03		8.0588E+00
			28.00		95.814E-03		8.0733E+00
			32.00		92.103E-03		8.0733E+00
			36.00		87.945E-03		8.0733E+00
			40.00		82.070E-03		8.0751E+00
			41.00		79.929E-03		8.0679E+00
			42.00		76.743E-03		8.0806E+00
			43.00		72.229E-03		8.0733E+00
			44.00		66.052E-03		8.0715E+00
			45.00		58.778E-03		8.0878E+00
			46.00		50.722E-03		8.0878E+00
			47.00		42.823E-03		8.0751E+00
			48.00		35.591E-03		8.0933E+00
			49.00		29.434E-03		8.0878E+00
			50.00		24.747E-03		8.0806E+00
			51.00		21.070E-03		8.0860E+00
			52.00		18.499E-03		8.0878E+00
			53.00		16.636E-03		8.0824E+00
			54.00		15.361E-03		8.0715E+00
			55.00		14.326E-03		8.0751E+00
			56.00		13.613E-03		8.0606E+00
			57.00		12.851E-03		8.0751E+00
			58.00		12.485E-03		8.0806E+00
			59.00		11.922E-03		8.0842E+00
			60.00		11.527E-03		8.0951E+00
			62.00		10.788E-03		8.0969E+00
			64.00		10.136E-03		8.0842E+00
			66.00		9.5328E-03		8.0842E+00
			68.00		8.9297E-03		8.0643E+00
			70.00		8.4635E-03		8.0606E+00
			72.00		7.9495E-03		8.0824E+00
			74.00		7.4739E-03		8.0896E+00
			76.00		7.0324E-03		8.0842E+00
			78.00		6.6469E-03		8.0914E+00
			80.00		6.3123E-03		8.0914E+00
		END_DATA
	END_SCAN  1
	BEGIN_SCAN  2
		TASK_NAME=tba PDD Profiles
		PROGRAM=tbaScan
		MEAS_DATE=16-Oct-2014 15:41:57
		LINAC=ORION
		MODALITY=X
		ISOCENTER=1000.00
		INPLANE_AXIS=Inplane
		CROSSPLANE_AXIS=Crossplane
		DEPTH_AXIS=Depth
		INPLANE_AXIS_DIR=GUN_TARGET
		CROSSPLANE_AXIS_DIR=LEFT_RIGHT
		DEPTH_AXIS_DIR=UP_DOWN
		ENERGY=10.00
		NOMINAL_DMAX=21.00
		SSD=900.00
		SCD=450.00
		BLOCK=0
		WEDGE=WIG
		FIELD_INPLANE=100.00
		FIELD_CROSSPLANE=100.00
		FIELD_TYPE=RECTANGULAR
		GANTRY=0.00
		GANTRY_UPRIGHT_POSITION=0
		GANTRY_ROTATION=CW
		COLL_ANGLE=0.00
		COLL_OFFSET_INPLANE=0.00
		COLL_OFFSET_CROSSPLANE=0.00
		SCAN_DEVICE=MP3
		SCAN_DEVICE_SETUP=BARA_TARGET_GUN
		ELECTROMETER=TANDEM
		RANGE_FIELD=AUTO
		RANGE_REFERENCE=AUTO
		DETECTOR=THIMBLE_CHAMBER
		DETECTOR_SUBCODE=SEMIFLEX
		DETECTOR_RADIUS=2.75
		DETECTOR_NAME=PTW 31010 Semiflex MZH2
		DETECTOR_SN=4517
		DETECTOR_CALIBRATION=300800000.00
		DETECTOR_IS_CALIBRATED=1
		DETECTOR_REFERENCE=THIMBLE_CHAMBER
		DETECTOR_REFERENCE_SUBCODE=SEMIFLEX
		DETECTOR_REFERENCE_RADIUS=2.75
		DETECTOR_REFERENCE_NAME=PTW 31010 Semiflex MZH1
		DETECTOR_REFERENCE_SN=4516
		DETECTOR_REFERENCE_IS_CALIBRATED=1
		DETECTOR_REFERENCE_CALIBRATION=302100000.00
		REF_FIELD_DEPTH=100.00
		REF_FIELD_DEFINED=ISOCENTER
		REF_FIELD_INPLANE=100.00
		REF_FIELD_CROSSPLANE=100.00
		REF_SCAN_POSITIONS=-80.00;-78.00;-76.00;-74.00;-72.00;-70.00;-68.00;-66.00;-64.00;-62.00;-60.00;-59.00;-58.00;-57.00;-56.00;-55.00;-54.00;-53.00;-52.00;-51.00;-50.00;-49.00;-48.00;-47.00;-46.00;-45.00;-44.00;-43.00;-42.00;-41.00;-40.00;-36.00;-32.00;-28.00;-24.00;-20.00;-16.00;-12.00;-8.00;-4.00;0.00;4.00;8.00;12.00;16.00;20.00;24.00;28.00;32.00;36.00;40.00;41.00;42.00;43.00;44.00;45.00;46.00;47.00;48.00;49.00;50.00;51.00;52.00;53.00;54.00;55.00;56.00;57.00;58.00;59.00;60.00;62.00;64.00;66.00;68.00;70.00;72.00;74.00;76.00;78.00;80.00;
		REF_OVERSCAN_FACTOR=1.00
		SCAN_CURVETYPE=CROSSPLANE_PROFILE
		SCAN_DEPTH=100.00
		SCAN_OFFAXIS_INPLANE=0.00
		SCAN_OFFAXIS_CROSSPLANE=0.00
		SCAN_ANGLE=0.00
		SCAN_DIAGONAL=NOT_DIAGONAL
		SCAN_DIRECTION=POSITIVE
		MEAS_MEDIUM=WATER
		MEAS_PRESET=REFERENCE_DOSEMETER
		MEAS_TIME=0.500
		MEAS_UNIT=A.U.
		SCAN_SPEEDS=20.00; 8.00;40.00; 25.00;100.00; 40.00;400.00; 50.00;
		DELAY_TIMES=20.00; 0.000;150.00; 0.000;400.00; 0.000;
		PRESSURE=1013.25
		TEMPERATURE=20.00
		NORM_TEMPERATURE=20.00
		CORRECTION_FACTOR=1.0000
		EXPECTED_MAX_DOSE_RATE=3.00
		BEGIN_DATA
			-80.00		9.5295E-03		8.1059E+00
			-78.00		9.9081E-03		8.1241E+00
			-76.00		10.391E-03		8.1114E+00
			-74.00		10.755E-03		8.1223E+00
			-72.00		11.332E-03		8.1223E+00
			-70.00		11.796E-03		8.1241E+00
			-68.00		12.455E-03		8.1005E+00
			-66.00		13.173E-03		8.0969E+00
			-64.00		13.951E-03		8.1114E+00
			-62.00		15.046E-03		8.0969E+00
			-60.00		16.324E-03		8.1041E+00
			-59.00		17.143E-03		8.1168E+00
			-58.00		18.291E-03		8.1204E+00
			-57.00		19.692E-03		8.1295E+00
			-56.00		21.854E-03		8.0933E+00
			-55.00		24.498E-03		8.1186E+00
			-54.00		28.436E-03		8.1114E+00
			-53.00		33.917E-03		8.1096E+00
			-52.00		41.417E-03		8.0878E+00
			-51.00		50.887E-03		8.1078E+00
			-50.00		61.433E-03		8.1114E+00
			-49.00		73.068E-03		8.1041E+00
			-48.00		83.999E-03		8.1023E+00
			-47.00		92.985E-03		8.1132E+00
			-46.00		100.06E-03		8.1132E+00
			-45.00		104.98E-03		8.1368E+00
			-44.00		108.36E-03		8.1114E+00
			-43.00		110.75E-03		8.1204E+00
			-42.00		112.00E-03		8.1313E+00
			-41.00		113.49E-03		8.1023E+00
			-40.00		114.64E-03		8.1078E+00
			-36.00		116.66E-03		8.1204E+00
			-32.00		117.87E-03		8.1150E+00
			-28.00		118.93E-03		8.1277E+00
			-24.00		120.02E-03		8.1349E+00
			-20.00		120.82E-03		8.1295E+00
			-16.00		121.06E-03		8.1386E+00
			-12.00		122.02E-03		8.1259E+00
			-8.00		122.19E-03		8.1368E+00
			-4.00		121.75E-03		8.1603E+00
			0.00		121.82E-03		8.1531E+00
			4.00		122.18E-03		8.1331E+00
			8.00		122.30E-03		8.1313E+00
			12.00		122.21E-03		8.1295E+00
			16.00		122.03E-03		8.1331E+00
			20.00		121.43E-03		8.1585E+00
			24.00		120.62E-03		8.1531E+00
			28.00		119.79E-03		8.1567E+00
			32.00		118.89E-03		8.1567E+00
			36.00		117.59E-03		8.1513E+00
			40.00		115.48E-03		8.1567E+00
			41.00		114.49E-03		8.1549E+00
			42.00		113.26E-03		8.1585E+00
			43.00		112.27E-03		8.1313E+00
			44.00		110.37E-03		8.1531E+00
			45.00		107.61E-03		8.1495E+00
			46.00		102.94E-03		8.1476E+00
			47.00		96.930E-03		8.1368E+00
			48.00		88.201E-03		8.1440E+00
			49.00		78.184E-03		8.1440E+00
			50.00		66.638E-03		8.1603E+00
			51.00		55.418E-03		8.1386E+00
			52.00		45.205E-03		8.1368E+00
			53.00		36.703E-03		8.1331E+00
			54.00		30.398E-03		8.1458E+00
			55.00		25.967E-03		8.1458E+00
			56.00		22.790E-03		8.1567E+00
			57.00		20.551E-03		8.1585E+00
			58.00		18.834E-03		8.1549E+00
			59.00		17.591E-03		8.1567E+00
			60.00		16.661E-03		8.1567E+00
			62.00		15.179E-03		8.1567E+00
			64.00		14.009E-03		8.1549E+00
			66.00		13.257E-03		8.1549E+00
			68.00		12.571E-03		8.1549E+00
			70.00		11.909E-03		8.1531E+00
			72.00		11.371E-03		8.1585E+00
			74.00		10.871E-03		8.1513E+00
			76.00		10.471E-03		8.1531E+00
			78.00		9.9459E-03		8.1476E+00
			80.00		9.5208E-03		8.1513E+00
		END_DATA
	END_SCAN  2
END_SCAN_DATA
