BEGIN_SCAN_DATA
	FORMAT=CC-Export V1.9                  
	FILE_CREATION_DATE=23-Oct-2014 12:42:16
	LAST_MODIFIED=23-Oct-2014 12:42:16
	BEGIN_SCAN  1
		TASK_NAME=tba PDD Profiles
		PROGRAM=tbaScan
		MEAS_DATE=24-Apr-2012 13:44:15
		LINAC=CASTOR
		MODALITY=X
		ISOCENTER=1000.00
		INPLANE_AXIS=Inplane
		CROSSPLANE_AXIS=Crossplane
		DEPTH_AXIS=Depth
		INPLANE_AXIS_DIR=GUN_TARGET
		CROSSPLANE_AXIS_DIR=LEFT_RIGHT
		DEPTH_AXIS_DIR=UP_DOWN
		ENERGY=10.00
		NOMINAL_DMAX=21.00
		SSD=1000.00
		SCD=450.00
		WEDGE=WIG
		FIELD_INPLANE=300.00
		FIELD_CROSSPLANE=400.00
		FIELD_TYPE=RECTANGULAR
		GANTRY=0.00
		GANTRY_UPRIGHT_POSITION=0
		GANTRY_ROTATION=CW
		COLL_ANGLE=0.00
		COLL_OFFSET_INPLANE=0.00
		COLL_OFFSET_CROSSPLANE=0.00
		SCAN_DEVICE=MP3
		SCAN_DEVICE_SETUP=BARA_LEFT_RIGHT
		ELECTROMETER=TANDEM
		RANGE_FIELD=AUTO
		RANGE_REFERENCE=AUTO
		DETECTOR=DOSIMETRY_DIODE
		DETECTOR_RADIUS=0.00
		DETECTOR_NAME=Scanditronix PFD-3G CWZ
		DETECTOR_SN=4264
		DETECTOR_CALIBRATION=5700000.00
		DETECTOR_IS_CALIBRATED=0
		DETECTOR_REFERENCE=DOSIMETRY_DIODE
		DETECTOR_REFERENCE_RADIUS=0.00
		DETECTOR_REFERENCE_NAME=Scanditronix RFD-3G CWZ
		DETECTOR_REFERENCE_SN=4203
		DETECTOR_REFERENCE_IS_CALIBRATED=0
		DETECTOR_REFERENCE_CALIBRATION=5700000.00
		DETECTOR_HV=0.0
		DETECTOR_REFERENCE_HV=0.0
		REF_FIELD_DEPTH=0.00
		REF_FIELD_DEFINED=ISOCENTER
		REF_FIELD_INPLANE=100.00
		REF_FIELD_CROSSPLANE=100.00
		REF_SCAN_POSITIONS=-100.00;-98.00;-96.00;-94.00;-92.00;-90.00;-88.00;-86.00;-84.00;-82.00;-80.00;-78.00;-76.00;-74.00;-72.00;-70.00;-68.00;-66.00;-64.00;-62.00;-60.00;-59.00;-58.00;-57.00;-56.00;-55.00;-54.00;-53.00;-52.00;-51.00;-50.00;-49.00;-48.00;-47.00;-46.00;-45.00;-44.00;-43.00;-42.00;-41.00;-40.00;-39.00;-36.00;-33.00;-30.00;-27.00;-24.00;-21.00;-18.00;-15.00;-12.00;-9.00;-6.00;-3.00;0.00;3.00;6.00;9.00;12.00;15.00;18.00;21.00;24.00;27.00;30.00;33.00;36.00;39.00;40.00;41.00;42.00;43.00;44.00;45.00;46.00;47.00;48.00;49.00;50.00;51.00;52.00;53.00;54.00;55.00;56.00;57.00;58.00;59.00;60.00;62.00;64.00;66.00;68.00;70.00;72.00;74.00;76.00;78.00;80.00;82.00;84.00;86.00;88.00;90.00;92.00;94.00;96.00;98.00;100.00;
		REF_OVERSCAN_FACTOR=1.00
		SCAN_CURVETYPE=INPLANE_PROFILE
		SCAN_DEPTH=100.00
		SCAN_OFFAXIS_INPLANE=0.00
		SCAN_OFFAXIS_CROSSPLANE=0.00
		SCAN_ANGLE=0.00
		SCAN_DIAGONAL=NOT_DIAGONAL
		SCAN_DIRECTION=POSITIVE
		MEAS_MEDIUM=WATER
		MEAS_PRESET=REFERENCE_DOSEMETER
		MEAS_TIME=0.500
		MEAS_UNIT=A.U.
		SCAN_SPEEDS=20.00; 8.00;40.00; 25.00;100.00; 40.00;400.00; 50.00;
		DELAY_TIMES=20.00; 0.500;150.00; 0.200;400.00; 0.000;
		INCLINATION_ANGLE=0.00
		PRESSURE=1013.20
		TEMPERATURE=20.00
		NORM_TEMPERATURE=20.00
		CORRECTION_FACTOR=1.0000
		EXPECTED_MAX_DOSE_RATE=5.00
		BEGIN_DATA
			-220.00		91.447E-03		317.90E-03
			-217.80		97.014E-03		317.29E-03
			-215.60		101.19E-03		317.70E-03
			-213.40		105.23E-03		318.52E-03
			-211.20		109.80E-03		317.73E-03
			-209.00		115.00E-03		318.21E-03
			-206.80		121.39E-03		318.38E-03
			-204.60		126.76E-03		318.38E-03
			-202.40		133.59E-03		317.46E-03
			-200.20		139.22E-03		319.38E-03
			-198.00		148.29E-03		318.28E-03
			-195.80		153.71E-03		318.18E-03
			-193.60		164.80E-03		317.53E-03
			-191.40		172.06E-03		318.04E-03
			-189.20		181.72E-03		318.08E-03
			-187.00		192.14E-03		318.62E-03
			-184.80		202.62E-03		319.03E-03
			-182.60		214.68E-03		318.62E-03
			-180.40		230.01E-03		318.21E-03
			-178.20		248.23E-03		318.28E-03
			-176.00		268.99E-03		317.87E-03
			-174.90		281.19E-03		317.46E-03
			-173.80		295.06E-03		318.76E-03
			-172.70		313.64E-03		318.42E-03
			-171.60		336.13E-03		317.46E-03
			-170.50		369.42E-03		318.49E-03
			-169.40		414.83E-03		318.25E-03
			-168.30		503.92E-03		318.32E-03
			-167.20		708.38E-03		318.66E-03
			-166.10		1.0624E+00		318.38E-03
			-165.00		1.5716E+00		319.03E-03
			-163.90		1.9957E+00		318.59E-03
			-162.80		2.2151E+00		318.69E-03
			-161.70		2.3126E+00		319.00E-03
			-160.60		2.3589E+00		318.69E-03
			-159.50		2.3840E+00		318.49E-03
			-158.40		2.4043E+00		318.08E-03
			-157.30		2.4042E+00		318.66E-03
			-156.20		2.4101E+00		318.45E-03
			-155.10		2.4057E+00		318.32E-03
			-154.00		2.4039E+00		318.55E-03
			-152.90		2.3943E+00		319.41E-03
			-149.60		2.3855E+00		317.43E-03
			-146.30		2.3499E+00		317.87E-03
			-143.00		2.3236E+00		317.05E-03
			-139.70		2.2833E+00		317.70E-03
			-136.40		2.2488E+00		317.87E-03
			-133.10		2.2171E+00		317.63E-03
			-129.80		2.1791E+00		317.36E-03
			-126.50		2.1431E+00		317.90E-03
			-123.20		2.1082E+00		318.62E-03
			-119.90		2.0625E+00		319.38E-03
			-116.60		2.0408E+00		316.74E-03
			-113.30		2.0000E+00		317.73E-03
			-110.00		1.9604E+00		317.70E-03
			-106.70		1.9258E+00		318.79E-03
			-103.40		1.8856E+00		317.97E-03
			-100.10		1.8532E+00		318.18E-03
			-96.80		1.8152E+00		318.25E-03
			-93.50		1.7857E+00		317.94E-03
			-90.20		1.7503E+00		318.32E-03
			-86.90		1.7248E+00		317.67E-03
			-83.60		1.6838E+00		318.90E-03
			-80.30		1.6570E+00		317.87E-03
			-77.00		1.6238E+00		318.04E-03
			-73.70		1.5937E+00		318.04E-03
			-70.40		1.5586E+00		318.62E-03
			-67.10		1.5311E+00		318.76E-03
			-63.80		1.5104E+00		318.14E-03
			-60.50		1.4789E+00		317.77E-03
			-57.20		1.4461E+00		318.35E-03
			-53.90		1.4240E+00		318.25E-03
			-50.60		1.3926E+00		318.28E-03
			-47.30		1.3683E+00		317.94E-03
			-44.00		1.3387E+00		317.56E-03
			-40.70		1.3084E+00		319.17E-03
			-37.40		1.2829E+00		318.04E-03
			-34.10		1.2517E+00		318.86E-03
			-30.80		1.2274E+00		317.67E-03
			-27.50		1.2058E+00		317.97E-03
			-24.20		1.1786E+00		317.77E-03
			-20.90		1.1565E+00		317.90E-03
			-17.60		1.1331E+00		317.53E-03
			-14.30		1.1076E+00		318.35E-03
			-11.00		1.0870E+00		318.11E-03
			-7.70		1.0601E+00		317.80E-03
			-4.40		1.0318E+00		318.55E-03
			-1.10		1.0128E+00		318.11E-03
			0.00		1.0022E+00		318.08E-03
			1.10		994.85E-03		318.69E-03
			4.40		974.01E-03		318.49E-03
			7.70		953.51E-03		318.52E-03
			11.00		934.91E-03		317.90E-03
			14.30		916.81E-03		318.21E-03
			17.60		895.14E-03		318.66E-03
			20.90		875.78E-03		318.28E-03
			24.20		857.51E-03		318.28E-03
			27.50		841.97E-03		316.84E-03
			30.80		817.82E-03		317.84E-03
			34.10		801.42E-03		317.94E-03
			37.40		782.39E-03		317.80E-03
			40.70		763.12E-03		318.66E-03
			44.00		747.42E-03		318.49E-03
			47.30		730.37E-03		317.49E-03
			50.60		714.82E-03		318.18E-03
			53.90		699.03E-03		317.05E-03
			57.20		682.72E-03		318.11E-03
			60.50		664.44E-03		318.11E-03
			63.80		651.56E-03		317.05E-03
			67.10		632.67E-03		317.87E-03
			70.40		617.88E-03		318.28E-03
			73.70		598.54E-03		318.28E-03
			77.00		586.91E-03		318.18E-03
			80.30		571.67E-03		318.28E-03
			83.60		558.55E-03		317.19E-03
			86.90		543.65E-03		317.70E-03
			90.20		533.13E-03		316.91E-03
			93.50		517.61E-03		318.49E-03
			96.80		502.26E-03		318.01E-03
			100.10		492.70E-03		318.62E-03
			103.40		478.55E-03		318.04E-03
			106.70		468.85E-03		317.32E-03
			110.00		454.35E-03		318.42E-03
			113.30		445.35E-03		317.94E-03
			116.60		433.52E-03		317.94E-03
			119.90		422.22E-03		318.35E-03
			123.20		408.78E-03		317.94E-03
			126.50		399.74E-03		317.43E-03
			129.80		387.55E-03		318.59E-03
			133.10		378.33E-03		318.21E-03
			136.40		367.47E-03		318.32E-03
			139.70		357.41E-03		317.70E-03
			143.00		345.05E-03		318.18E-03
			146.30		333.48E-03		318.96E-03
			149.60		324.98E-03		317.84E-03
			152.90		313.27E-03		317.70E-03
			154.00		307.87E-03		318.83E-03
			155.10		305.34E-03		318.11E-03
			156.20		301.01E-03		318.14E-03
			157.30		298.83E-03		318.18E-03
			158.40		294.47E-03		318.25E-03
			159.50		290.20E-03		318.21E-03
			160.60		282.89E-03		317.97E-03
			161.70		275.39E-03		317.94E-03
			162.80		262.31E-03		318.14E-03
			163.90		236.79E-03		317.77E-03
			165.00		200.58E-03		318.86E-03
			166.10		166.51E-03		318.38E-03
			167.20		142.10E-03		317.70E-03
			168.30		128.07E-03		317.80E-03
			169.40		121.31E-03		318.59E-03
			170.50		116.28E-03		317.67E-03
			171.60		113.81E-03		318.55E-03
			172.70		110.60E-03		318.52E-03
			173.80		109.54E-03		318.49E-03
			174.90		106.65E-03		317.49E-03
			176.00		104.20E-03		318.38E-03
			178.20		100.23E-03		317.36E-03
			180.40		97.797E-03		318.25E-03
			182.60		94.624E-03		318.08E-03
			184.80		91.300E-03		318.42E-03
			187.00		88.391E-03		317.29E-03
			189.20		86.198E-03		317.43E-03
			191.40		83.055E-03		317.08E-03
			193.60		79.527E-03		318.25E-03
			195.80		76.229E-03		318.55E-03
			198.00		74.442E-03		317.02E-03
			200.20		70.922E-03		318.28E-03
			202.40		68.751E-03		318.38E-03
			204.60		65.690E-03		317.60E-03
			206.80		64.634E-03		317.49E-03
			209.00		61.165E-03		318.73E-03
			211.20		59.172E-03		317.90E-03
			213.40		56.971E-03		318.18E-03
			215.60		54.862E-03		317.94E-03
			217.80		52.756E-03		317.67E-03
			220.00		50.614E-03		317.60E-03
		END_DATA
	END_SCAN  1
	BEGIN_SCAN  2
		TASK_NAME=tba PDD Profiles
		PROGRAM=tbaScan
		MEAS_DATE=12-Apr-2012 09:40:08
		LINAC=CASTOR
		MODALITY=X
		ISOCENTER=1000.00
		INPLANE_AXIS=Inplane
		CROSSPLANE_AXIS=Crossplane
		DEPTH_AXIS=Depth
		INPLANE_AXIS_DIR=GUN_TARGET
		CROSSPLANE_AXIS_DIR=LEFT_RIGHT
		DEPTH_AXIS_DIR=UP_DOWN
		ENERGY=6.00
		NOMINAL_DMAX=15.00
		SSD=1000.00
		SCD=450.00
		WEDGE=IN
		FIELD_INPLANE=300.00
		FIELD_CROSSPLANE=400.00
		FIELD_TYPE=RECTANGULAR
		GANTRY=0.00
		GANTRY_UPRIGHT_POSITION=0
		GANTRY_ROTATION=CW
		COLL_ANGLE=0.00
		COLL_OFFSET_INPLANE=0.00
		COLL_OFFSET_CROSSPLANE=0.00
		SCAN_DEVICE=MP3
		SCAN_DEVICE_SETUP=BARA_LEFT_RIGHT
		ELECTROMETER=TANDEM
		RANGE_FIELD=AUTO
		RANGE_REFERENCE=AUTO
		DETECTOR=DOSIMETRY_DIODE
		DETECTOR_RADIUS=0.00
		DETECTOR_NAME=Scanditronix PFD-3G CWZ
		DETECTOR_SN=4264
		DETECTOR_CALIBRATION=5700000.00
		DETECTOR_IS_CALIBRATED=0
		DETECTOR_REFERENCE=DOSIMETRY_DIODE
		DETECTOR_REFERENCE_RADIUS=0.00
		DETECTOR_REFERENCE_NAME=Scanditronix RFD-3G CWZ
		DETECTOR_REFERENCE_SN=4203
		DETECTOR_REFERENCE_IS_CALIBRATED=0
		DETECTOR_REFERENCE_CALIBRATION=5700000.00
		REF_FIELD_DEPTH=0.00
		REF_FIELD_DEFINED=ISOCENTER
		REF_FIELD_INPLANE=100.00
		REF_FIELD_CROSSPLANE=100.00
		REF_SCAN_POSITIONS=-100.00;-98.00;-96.00;-94.00;-92.00;-90.00;-88.00;-86.00;-84.00;-82.00;-80.00;-78.00;-76.00;-74.00;-72.00;-70.00;-68.00;-66.00;-64.00;-62.00;-60.00;-59.00;-58.00;-57.00;-56.00;-55.00;-54.00;-53.00;-52.00;-51.00;-50.00;-49.00;-48.00;-47.00;-46.00;-45.00;-44.00;-43.00;-42.00;-41.00;-40.00;-39.00;-36.00;-33.00;-30.00;-27.00;-24.00;-21.00;-18.00;-15.00;-12.00;-9.00;-6.00;-3.00;0.00;3.00;6.00;9.00;12.00;15.00;18.00;21.00;24.00;27.00;30.00;33.00;36.00;39.00;40.00;41.00;42.00;43.00;44.00;45.00;46.00;47.00;48.00;49.00;50.00;51.00;52.00;53.00;54.00;55.00;56.00;57.00;58.00;59.00;60.00;62.00;64.00;66.00;68.00;70.00;72.00;74.00;76.00;78.00;80.00;82.00;84.00;86.00;88.00;90.00;92.00;94.00;96.00;98.00;100.00;
		REF_OVERSCAN_FACTOR=1.00
		SCAN_CURVETYPE=INPLANE_PROFILE
		SCAN_DEPTH=100.00
		SCAN_OFFAXIS_INPLANE=0.00
		SCAN_OFFAXIS_CROSSPLANE=0.00
		SCAN_ANGLE=0.00
		SCAN_DIAGONAL=NOT_DIAGONAL
		SCAN_DIRECTION=POSITIVE
		MEAS_MEDIUM=WATER
		MEAS_PRESET=REFERENCE_DOSEMETER
		MEAS_TIME=1.000
		MEAS_UNIT=A.U.
		SCAN_SPEEDS=20.00; 8.00;40.00; 25.00;100.00; 40.00;400.00; 50.00;
		DELAY_TIMES=20.00; 0.500;150.00; 0.200;400.00; 0.000;
		INCLINATION_ANGLE=0.00
		PRESSURE=1013.20
		TEMPERATURE=20.00
		NORM_TEMPERATURE=20.00
		CORRECTION_FACTOR=1.0000
		EXPECTED_MAX_DOSE_RATE=5.00
		BEGIN_DATA
			-220.00		88.528E-03		378.61E-03
			-217.80		93.213E-03		377.93E-03
			-215.60		97.915E-03		377.24E-03
			-213.40		102.17E-03		378.27E-03
			-211.20		106.17E-03		376.90E-03
			-209.00		110.61E-03		377.24E-03
			-206.80		115.84E-03		377.93E-03
			-204.60		121.27E-03		377.93E-03
			-202.40		126.70E-03		377.93E-03
			-200.20		132.25E-03		377.59E-03
			-198.00		138.46E-03		377.93E-03
			-195.80		145.57E-03		378.27E-03
			-193.60		152.66E-03		378.61E-03
			-191.40		160.04E-03		378.27E-03
			-189.20		168.17E-03		378.27E-03
			-187.00		176.31E-03		378.27E-03
			-184.80		186.09E-03		378.61E-03
			-182.60		196.20E-03		378.27E-03
			-180.40		209.05E-03		377.93E-03
			-178.20		222.62E-03		377.93E-03
			-176.00		236.20E-03		377.93E-03
			-174.90		243.68E-03		378.95E-03
			-173.80		252.94E-03		378.61E-03
			-172.70		263.11E-03		378.27E-03
			-171.60		274.86E-03		378.27E-03
			-170.50		289.19E-03		379.64E-03
			-169.40		311.31E-03		377.93E-03
			-168.30		341.77E-03		378.27E-03
			-167.20		413.36E-03		378.95E-03
			-166.10		573.10E-03		378.95E-03
			-165.00		900.72E-03		378.95E-03
			-163.90		1.3725E+00		378.27E-03
			-162.80		1.6896E+00		377.93E-03
			-161.70		1.8178E+00		377.24E-03
			-160.60		1.8573E+00		378.61E-03
			-159.50		1.8797E+00		378.27E-03
			-158.40		1.8835E+00		378.61E-03
			-157.30		1.8801E+00		379.30E-03
			-156.20		1.8881E+00		378.95E-03
			-155.10		1.8861E+00		378.27E-03
			-154.00		1.8756E+00		379.30E-03
			-152.90		1.8795E+00		377.59E-03
			-149.60		1.8526E+00		378.27E-03
			-146.30		1.8255E+00		378.27E-03
			-143.00		1.7995E+00		378.61E-03
			-139.70		1.7712E+00		378.27E-03
			-136.40		1.7403E+00		379.30E-03
			-133.10		1.7103E+00		378.95E-03
			-129.80		1.6854E+00		378.27E-03
			-126.50		1.6573E+00		378.27E-03
			-123.20		1.6275E+00		378.27E-03
			-119.90		1.6004E+00		378.27E-03
			-116.60		1.5691E+00		378.61E-03
			-113.30		1.5457E+00		377.93E-03
			-110.00		1.5154E+00		378.27E-03
			-106.70		1.4865E+00		378.95E-03
			-103.40		1.4624E+00		377.93E-03
			-100.10		1.4349E+00		378.27E-03
			-96.80		1.4088E+00		378.95E-03
			-93.50		1.3870E+00		378.27E-03
			-90.20		1.3617E+00		378.27E-03
			-86.90		1.3367E+00		377.93E-03
			-83.60		1.3131E+00		377.93E-03
			-80.30		1.2884E+00		378.27E-03
			-77.00		1.2631E+00		378.27E-03
			-73.70		1.2374E+00		378.95E-03
			-70.40		1.2177E+00		378.61E-03
			-67.10		1.1971E+00		378.27E-03
			-63.80		1.1745E+00		378.27E-03
			-60.50		1.1498E+00		378.95E-03
			-57.20		1.1283E+00		378.61E-03
			-53.90		1.1066E+00		378.61E-03
			-50.60		1.0849E+00		378.61E-03
			-47.30		1.0604E+00		379.30E-03
			-44.00		1.0426E+00		377.59E-03
			-40.70		1.0189E+00		379.30E-03
			-37.40		998.19E-03		378.95E-03
			-34.10		978.30E-03		378.27E-03
			-30.80		959.35E-03		378.61E-03
			-27.50		939.42E-03		378.27E-03
			-24.20		917.72E-03		378.27E-03
			-20.90		897.83E-03		378.27E-03
			-17.60		877.15E-03		378.61E-03
			-14.30		862.94E-03		379.30E-03
			-11.00		844.63E-03		378.61E-03
			-7.70		825.50E-03		378.27E-03
			-4.40		803.25E-03		378.95E-03
			-1.10		784.49E-03		379.30E-03
			0.00		779.08E-03		379.30E-03
			1.10		774.37E-03		378.95E-03
			4.40		759.03E-03		378.95E-03
			7.70		741.67E-03		379.98E-03
			11.00		728.34E-03		378.95E-03
			14.30		711.83E-03		378.61E-03
			17.60		696.75E-03		378.95E-03
			20.90		678.99E-03		379.30E-03
			24.20		665.16E-03		378.95E-03
			27.50		649.82E-03		378.95E-03
			30.80		634.48E-03		378.95E-03
			34.10		621.16E-03		378.27E-03
			37.40		602.70E-03		379.64E-03
			40.70		592.43E-03		379.30E-03
			44.00		577.62E-03		378.95E-03
			47.30		564.47E-03		379.30E-03
			50.60		550.05E-03		379.30E-03
			53.90		538.81E-03		378.95E-03
			57.20		525.27E-03		378.95E-03
			60.50		512.15E-03		379.98E-03
			63.80		500.45E-03		378.61E-03
			67.10		488.73E-03		379.30E-03
			70.40		475.63E-03		378.95E-03
			73.70		461.68E-03		379.30E-03
			77.00		451.26E-03		378.95E-03
			80.30		438.63E-03		378.95E-03
			83.60		427.41E-03		379.30E-03
			86.90		417.72E-03		378.27E-03
			90.20		406.14E-03		378.95E-03
			93.50		396.40E-03		379.64E-03
			96.80		384.68E-03		379.64E-03
			100.10		375.11E-03		379.30E-03
			103.40		364.86E-03		379.64E-03
			106.70		354.69E-03		378.95E-03
			110.00		345.36E-03		379.30E-03
			113.30		336.34E-03		379.30E-03
			116.60		327.32E-03		379.30E-03
			119.90		318.26E-03		378.27E-03
			123.20		308.73E-03		379.98E-03
			126.50		302.07E-03		379.30E-03
			129.80		293.06E-03		379.30E-03
			133.10		283.53E-03		379.98E-03
			136.40		276.83E-03		379.30E-03
			139.70		268.95E-03		378.95E-03
			143.00		260.60E-03		379.30E-03
			146.30		252.03E-03		379.98E-03
			149.60		244.14E-03		379.64E-03
			152.90		237.84E-03		379.64E-03
			154.00		234.71E-03		380.32E-03
			155.10		230.84E-03		379.30E-03
			156.20		228.62E-03		379.98E-03
			157.30		226.33E-03		379.30E-03
			158.40		222.72E-03		379.30E-03
			159.50		220.32E-03		380.32E-03
			160.60		215.70E-03		378.95E-03
			161.70		210.29E-03		378.95E-03
			162.80		200.00E-03		379.64E-03
			163.90		183.95E-03		379.30E-03
			165.00		156.90E-03		379.30E-03
			166.10		127.93E-03		379.64E-03
			167.20		110.81E-03		379.64E-03
			168.30		101.71E-03		379.98E-03
			169.40		97.210E-03		379.98E-03
			170.50		94.509E-03		379.98E-03
			171.60		92.876E-03		379.30E-03
			172.70		90.827E-03		380.32E-03
			173.80		89.109E-03		379.98E-03
			174.90		87.387E-03		379.64E-03
			176.00		85.509E-03		379.98E-03
			178.20		83.558E-03		380.66E-03
			180.40		80.036E-03		380.32E-03
			182.60		78.237E-03		380.32E-03
			184.80		76.439E-03		380.32E-03
			187.00		73.741E-03		380.32E-03
			189.20		72.007E-03		379.98E-03
			191.40		69.307E-03		379.98E-03
			193.60		67.325E-03		381.01E-03
			195.80		65.766E-03		379.64E-03
			198.00		63.063E-03		379.64E-03
			200.20		61.317E-03		379.30E-03
			202.40		59.299E-03		380.66E-03
			204.60		57.502E-03		380.66E-03
			206.80		55.856E-03		379.64E-03
			209.00		54.005E-03		379.98E-03
			211.20		51.167E-03		381.01E-03
			213.40		49.505E-03		379.98E-03
			215.60		48.561E-03		380.32E-03
			217.80		46.847E-03		379.64E-03
			220.00		44.964E-03		380.32E-03
		END_DATA
	END_SCAN  2
END_SCAN_DATA
