BEGIN_SCAN_DATA
	FORMAT=CC-Export V1.9                  
	FILE_CREATION_DATE=06-Aug-2015 13:04:15
	LAST_MODIFIED=06-Aug-2015 13:04:15
	BEGIN_SCAN  1
		TASK_NAME=tba PDD Profiles
		PROGRAM=tbaScan
		COMMENT=Acceptance profielen X6 FFF GT & AB
		MEAS_DATE=03-Jan-2014 14:51:20
		LINAC=U2B FFF
		MODALITY=X
		ISOCENTER=1000.00
		INPLANE_AXIS=GT
		CROSSPLANE_AXIS=AB
		DEPTH_AXIS=Depth
		INPLANE_AXIS_DIR=GUN_TARGET
		CROSSPLANE_AXIS_DIR=LEFT_RIGHT
		DEPTH_AXIS_DIR=UP_DOWN
		ENERGY=6.00
		NOMINAL_DMAX=15.00
		SSD=950.00
		SCD=548.00
		WEDGE_ANGLE=0.00
		FIELD_INPLANE=300.00
		FIELD_CROSSPLANE=300.00
		FIELD_TYPE=RECTANGULAR
		GANTRY=0.00
		GANTRY_UPRIGHT_POSITION=0
		GANTRY_ROTATION=CW
		COLL_ANGLE=90.00
		COLL_OFFSET_INPLANE=0.00
		COLL_OFFSET_CROSSPLANE=0.00
		SCAN_DEVICE=MP3
		SCAN_DEVICE_SETUP=BARA_TARGET_GUN
		ELECTROMETER=TANDEM
		RANGE_FIELD=HIGH
		RANGE_REFERENCE=HIGH
		DETECTOR=DOSIMETRY_DIODE
		DETECTOR_RADIUS=0.00
		DETECTOR_NAME=PTW 60008 Diode P
		DETECTOR_SN=0552
		DETECTOR_CALIBRATION=15000000.00
		DETECTOR_IS_CALIBRATED=0
		DETECTOR_REFERENCE=DOSIMETRY_DIODE
		DETECTOR_REFERENCE_RADIUS=0.00
		DETECTOR_REFERENCE_NAME=PTW 60008 Diode P
		DETECTOR_REFERENCE_SN=0553
		DETECTOR_REFERENCE_IS_CALIBRATED=0
		DETECTOR_REFERENCE_CALIBRATION=15000000.00
		DETECTOR_HV=-200.0
		DETECTOR_REFERENCE_HV=0.0
		REF_FIELD_DEPTH=50.00
		REF_FIELD_DEFINED=ISOCENTER
		REF_FIELD_INPLANE=100.00
		REF_FIELD_CROSSPLANE=100.00
		REF_SCAN_POSITIONS=-80.00;-78.00;-75.00;-72.00;-69.00;-66.00;-63.00;-60.00;-59.00;-58.00;-57.00;-56.00;-55.00;-54.00;-53.00;-52.00;-51.00;-50.00;-49.00;-48.00;-47.00;-46.00;-45.00;-44.00;-43.00;-42.00;-41.00;-40.00;-35.00;-30.00;-25.00;-20.00;-15.00;-10.00;-5.00;0.00;5.00;10.00;15.00;20.00;25.00;30.00;35.00;40.00;41.00;42.00;43.00;44.00;45.00;46.00;47.00;48.00;49.00;50.00;51.00;52.00;53.00;54.00;55.00;56.00;57.00;58.00;59.00;60.00;63.00;66.00;69.00;72.00;75.00;78.00;80.00;
		REF_OVERSCAN_FACTOR=1.00
		SCAN_CURVETYPE=INPLANE_PROFILE
		SCAN_DEPTH=50.00
		SCAN_OFFAXIS_INPLANE=0.00
		SCAN_OFFAXIS_CROSSPLANE=0.00
		SCAN_ANGLE=90.00
		SCAN_DIAGONAL=NOT_DIAGONAL
		SCAN_DIRECTION=POSITIVE
		MEAS_MEDIUM=WATER
		MEAS_PRESET=REFERENCE_DOSEMETER
		MEAS_TIME=0.300
		MEAS_UNIT=A.U.
		SCAN_SPEEDS=20.00; 4.00;40.00; 8.00;100.00; 10.00;400.00; 25.00;
		DELAY_TIMES=20.00; 0.000;150.00; 0.000;400.00; 0.000;
		INCLINATION_ANGLE=0.00
		PRESSURE=1013.25
		TEMPERATURE=20.00
		NORM_TEMPERATURE=20.00
		CORRECTION_FACTOR=1.0000
		EXPECTED_MAX_DOSE_RATE=7.00
		BEGIN_DATA
			-180.00		63.501E-03		11.466E+00
			-178.00		66.066E-03		11.484E+00
			-175.00		70.980E-03		11.475E+00
			-172.00		75.981E-03		11.466E+00
			-169.00		82.275E-03		11.475E+00
			-166.00		89.969E-03		11.484E+00
			-163.00		99.452E-03		11.493E+00
			-160.00		111.87E-03		11.529E+00
			-159.00		118.66E-03		11.529E+00
			-158.00		125.55E-03		11.520E+00
			-157.00		134.17E-03		11.511E+00
			-156.00		145.67E-03		11.529E+00
			-155.00		163.88E-03		11.538E+00
			-154.00		190.33E-03		11.538E+00
			-153.00		233.02E-03		11.529E+00
			-152.00		311.13E-03		11.565E+00
			-151.00		458.72E-03		11.556E+00
			-150.00		660.44E-03		11.556E+00
			-149.00		817.76E-03		11.556E+00
			-148.00		894.08E-03		11.556E+00
			-147.00		933.85E-03		11.565E+00
			-146.00		957.23E-03		11.574E+00
			-145.00		972.81E-03		11.583E+00
			-144.00		983.71E-03		11.601E+00
			-143.00		995.34E-03		11.592E+00
			-142.00		1.0062E+00		11.601E+00
			-141.00		1.0171E+00		11.574E+00
			-140.00		1.0233E+00		11.592E+00
			-135.00		1.0535E+00		11.610E+00
			-130.00		1.0822E+00		11.601E+00
			-125.00		1.1069E+00		11.619E+00
			-120.00		1.1347E+00		11.628E+00
			-115.00		1.1620E+00		11.610E+00
			-110.00		1.1859E+00		11.619E+00
			-105.00		1.2115E+00		11.619E+00
			-100.00		1.2359E+00		11.637E+00
			-95.00		1.2614E+00		11.637E+00
			-90.00		1.2875E+00		11.646E+00
			-85.00		1.3122E+00		11.646E+00
			-80.00		1.3418E+00		11.637E+00
			-75.00		1.3707E+00		11.628E+00
			-70.00		1.3963E+00		11.628E+00
			-65.00		1.4202E+00		11.673E+00
			-60.00		1.4475E+00		11.664E+00
			-55.00		1.4757E+00		11.655E+00
			-50.00		1.5031E+00		11.646E+00
			-45.00		1.5281E+00		11.673E+00
			-40.00		1.5544E+00		11.655E+00
			-35.00		1.5755E+00		11.682E+00
			-30.00		1.5994E+00		11.682E+00
			-25.00		1.6237E+00		11.673E+00
			-20.00		1.6448E+00		11.655E+00
			-15.00		1.6605E+00		11.664E+00
			-10.00		1.6700E+00		11.673E+00
			-5.00		1.6800E+00		11.673E+00
			0.00		1.6829E+00		11.664E+00
			5.00		1.6810E+00		11.682E+00
			10.00		1.6767E+00		11.691E+00
			15.00		1.6685E+00		11.673E+00
			20.00		1.6502E+00		11.682E+00
			25.00		1.6343E+00		11.691E+00
			30.00		1.6148E+00		11.682E+00
			35.00		1.5915E+00		11.700E+00
			40.00		1.5680E+00		11.709E+00
			45.00		1.5415E+00		11.700E+00
			50.00		1.5146E+00		11.700E+00
			55.00		1.4889E+00		11.709E+00
			60.00		1.4604E+00		11.709E+00
			65.00		1.4305E+00		11.727E+00
			70.00		1.4062E+00		11.700E+00
			75.00		1.3797E+00		11.709E+00
			80.00		1.3525E+00		11.718E+00
			85.00		1.3239E+00		11.727E+00
			90.00		1.2978E+00		11.727E+00
			95.00		1.2713E+00		11.709E+00
			100.00		1.2460E+00		11.709E+00
			105.00		1.2174E+00		11.718E+00
			110.00		1.1923E+00		11.700E+00
			115.00		1.1642E+00		11.727E+00
			120.00		1.1420E+00		11.727E+00
			125.00		1.1144E+00		11.718E+00
			130.00		1.0868E+00		11.718E+00
			135.00		1.0583E+00		11.736E+00
			140.00		1.0238E+00		11.727E+00
			141.00		1.0153E+00		11.727E+00
			142.00		1.0077E+00		11.718E+00
			143.00		996.93E-03		11.736E+00
			144.00		984.66E-03		11.736E+00
			145.00		969.28E-03		11.718E+00
			146.00		944.79E-03		11.736E+00
			147.00		904.14E-03		11.736E+00
			148.00		821.95E-03		11.727E+00
			149.00		665.57E-03		11.736E+00
			150.00		464.82E-03		11.718E+00
			151.00		319.48E-03		11.736E+00
			152.00		237.22E-03		11.727E+00
			153.00		191.26E-03		11.745E+00
			154.00		163.19E-03		11.736E+00
			155.00		144.94E-03		11.736E+00
			156.00		133.18E-03		11.718E+00
			157.00		123.85E-03		11.736E+00
			158.00		116.42E-03		11.727E+00
			159.00		111.13E-03		11.727E+00
			160.00		105.99E-03		11.718E+00
			163.00		94.095E-03		11.736E+00
			166.00		85.046E-03		11.736E+00
			169.00		78.972E-03		11.727E+00
			172.00		72.273E-03		11.718E+00
			175.00		66.897E-03		11.745E+00
			178.00		62.653E-03		11.736E+00
			180.00		59.708E-03		11.727E+00
		END_DATA
	END_SCAN  1
	BEGIN_SCAN  2
		TASK_NAME=tba PDD Profiles
		PROGRAM=tbaScan
		COMMENT=Acceptance profielen X6 FFF GT & AB
		MEAS_DATE=03-Jan-2014 14:51:20
		LINAC=U2B FFF
		MODALITY=X
		ISOCENTER=1000.00
		INPLANE_AXIS=GT
		CROSSPLANE_AXIS=AB
		DEPTH_AXIS=Depth
		INPLANE_AXIS_DIR=GUN_TARGET
		CROSSPLANE_AXIS_DIR=LEFT_RIGHT
		DEPTH_AXIS_DIR=UP_DOWN
		ENERGY=6.00
		NOMINAL_DMAX=15.00
		SSD=950.00
		SCD=548.00
		WEDGE_ANGLE=0.00
		FIELD_INPLANE=300.00
		FIELD_CROSSPLANE=300.00
		FIELD_TYPE=RECTANGULAR
		GANTRY=0.00
		GANTRY_UPRIGHT_POSITION=0
		GANTRY_ROTATION=CW
		COLL_ANGLE=90.00
		COLL_OFFSET_INPLANE=0.00
		COLL_OFFSET_CROSSPLANE=0.00
		SCAN_DEVICE=MP3
		SCAN_DEVICE_SETUP=BARA_TARGET_GUN
		ELECTROMETER=TANDEM
		RANGE_FIELD=HIGH
		RANGE_REFERENCE=HIGH
		DETECTOR=DOSIMETRY_DIODE
		DETECTOR_RADIUS=0.00
		DETECTOR_NAME=PTW 60008 Diode P
		DETECTOR_SN=0552
		DETECTOR_CALIBRATION=15000000.00
		DETECTOR_IS_CALIBRATED=0
		DETECTOR_REFERENCE=DOSIMETRY_DIODE
		DETECTOR_REFERENCE_RADIUS=0.00
		DETECTOR_REFERENCE_NAME=PTW 60008 Diode P
		DETECTOR_REFERENCE_SN=0553
		DETECTOR_REFERENCE_IS_CALIBRATED=0
		DETECTOR_REFERENCE_CALIBRATION=15000000.00
		DETECTOR_HV=-200.0
		DETECTOR_REFERENCE_HV=0.0
		REF_FIELD_DEPTH=50.00
		REF_FIELD_DEFINED=ISOCENTER
		REF_FIELD_INPLANE=100.00
		REF_FIELD_CROSSPLANE=100.00
		REF_SCAN_POSITIONS=-80.00;-78.00;-75.00;-72.00;-69.00;-66.00;-63.00;-60.00;-59.00;-58.00;-57.00;-56.00;-55.00;-54.00;-53.00;-52.00;-51.00;-50.00;-49.00;-48.00;-47.00;-46.00;-45.00;-44.00;-43.00;-42.00;-41.00;-40.00;-35.00;-30.00;-25.00;-20.00;-15.00;-10.00;-5.00;0.00;5.00;10.00;15.00;20.00;25.00;30.00;35.00;40.00;41.00;42.00;43.00;44.00;45.00;46.00;47.00;48.00;49.00;50.00;51.00;52.00;53.00;54.00;55.00;56.00;57.00;58.00;59.00;60.00;63.00;66.00;69.00;72.00;75.00;78.00;80.00;
		REF_OVERSCAN_FACTOR=1.00
		SCAN_CURVETYPE=CROSSPLANE_PROFILE
		SCAN_DEPTH=50.00
		SCAN_OFFAXIS_INPLANE=0.00
		SCAN_OFFAXIS_CROSSPLANE=0.00
		SCAN_ANGLE=90.00
		SCAN_DIAGONAL=NOT_DIAGONAL
		SCAN_DIRECTION=POSITIVE
		MEAS_MEDIUM=WATER
		MEAS_PRESET=REFERENCE_DOSEMETER
		MEAS_TIME=0.300
		MEAS_UNIT=A.U.
		SCAN_SPEEDS=20.00; 4.00;40.00; 8.00;100.00; 10.00;400.00; 25.00;
		DELAY_TIMES=20.00; 0.000;150.00; 0.000;400.00; 0.000;
		INCLINATION_ANGLE=0.00
		PRESSURE=1013.25
		TEMPERATURE=20.00
		NORM_TEMPERATURE=20.00
		CORRECTION_FACTOR=1.0000
		EXPECTED_MAX_DOSE_RATE=7.00
		BEGIN_DATA
			-180.00		56.188E-03		11.709E+00
			-178.00		58.462E-03		11.700E+00
			-175.00		62.778E-03		11.727E+00
			-172.00		68.049E-03		11.718E+00
			-169.00		73.446E-03		11.727E+00
			-166.00		80.660E-03		11.727E+00
			-163.00		90.169E-03		11.718E+00
			-160.00		103.31E-03		11.709E+00
			-159.00		108.14E-03		11.727E+00
			-158.00		114.57E-03		11.736E+00
			-157.00		123.35E-03		11.718E+00
			-156.00		133.74E-03		11.709E+00
			-155.00		149.31E-03		11.700E+00
			-154.00		172.48E-03		11.709E+00
			-153.00		212.84E-03		11.709E+00
			-152.00		289.47E-03		11.709E+00
			-151.00		426.46E-03		11.700E+00
			-150.00		621.62E-03		11.700E+00
			-149.00		790.16E-03		11.709E+00
			-148.00		882.31E-03		11.700E+00
			-147.00		927.69E-03		11.700E+00
			-146.00		956.22E-03		11.718E+00
			-145.00		973.08E-03		11.700E+00
			-144.00		988.45E-03		11.691E+00
			-143.00		996.93E-03		11.718E+00
			-142.00		1.0069E+00		11.700E+00
			-141.00		1.0123E+00		11.727E+00
			-140.00		1.0215E+00		11.700E+00
			-135.00		1.0530E+00		11.709E+00
			-130.00		1.0799E+00		11.709E+00
			-125.00		1.1102E+00		11.682E+00
			-120.00		1.1347E+00		11.691E+00
			-115.00		1.1553E+00		11.709E+00
			-110.00		1.1863E+00		11.691E+00
			-105.00		1.2091E+00		11.709E+00
			-100.00		1.2354E+00		11.700E+00
			-95.00		1.2588E+00		11.718E+00
			-90.00		1.2869E+00		11.700E+00
			-85.00		1.3101E+00		11.727E+00
			-80.00		1.3390E+00		11.709E+00
			-75.00		1.3672E+00		11.691E+00
			-70.00		1.3943E+00		11.709E+00
			-65.00		1.4197E+00		11.709E+00
			-60.00		1.4469E+00		11.700E+00
			-55.00		1.4758E+00		11.691E+00
			-50.00		1.5008E+00		11.718E+00
			-45.00		1.5269E+00		11.718E+00
			-40.00		1.5558E+00		11.691E+00
			-35.00		1.5796E+00		11.709E+00
			-30.00		1.6031E+00		11.700E+00
			-25.00		1.6214E+00		11.718E+00
			-20.00		1.6444E+00		11.718E+00
			-15.00		1.6582E+00		11.718E+00
			-10.00		1.6733E+00		11.709E+00
			-5.00		1.6795E+00		11.709E+00
			0.00		1.6802E+00		11.709E+00
			5.00		1.6774E+00		11.718E+00
			10.00		1.6685E+00		11.727E+00
			15.00		1.6590E+00		11.718E+00
			20.00		1.6416E+00		11.727E+00
			25.00		1.6264E+00		11.709E+00
			30.00		1.6049E+00		11.709E+00
			35.00		1.5808E+00		11.700E+00
			40.00		1.5597E+00		11.691E+00
			45.00		1.5323E+00		11.718E+00
			50.00		1.5081E+00		11.691E+00
			55.00		1.4785E+00		11.700E+00
			60.00		1.4508E+00		11.700E+00
			65.00		1.4204E+00		11.709E+00
			70.00		1.3966E+00		11.709E+00
			75.00		1.3694E+00		11.718E+00
			80.00		1.3405E+00		11.736E+00
			85.00		1.3134E+00		11.718E+00
			90.00		1.2870E+00		11.727E+00
			95.00		1.2638E+00		11.700E+00
			100.00		1.2373E+00		11.718E+00
			105.00		1.2097E+00		11.718E+00
			110.00		1.1866E+00		11.718E+00
			115.00		1.1608E+00		11.700E+00
			120.00		1.1360E+00		11.709E+00
			125.00		1.1092E+00		11.700E+00
			130.00		1.0831E+00		11.700E+00
			135.00		1.0538E+00		11.709E+00
			140.00		1.0192E+00		11.709E+00
			141.00		1.0123E+00		11.700E+00
			142.00		1.0015E+00		11.709E+00
			143.00		991.56E-03		11.727E+00
			144.00		979.28E-03		11.727E+00
			145.00		963.82E-03		11.691E+00
			146.00		936.87E-03		11.691E+00
			147.00		889.32E-03		11.709E+00
			148.00		796.15E-03		11.700E+00
			149.00		625.52E-03		11.709E+00
			150.00		426.54E-03		11.700E+00
			151.00		288.47E-03		11.709E+00
			152.00		211.91E-03		11.709E+00
			153.00		172.00E-03		11.700E+00
			154.00		148.42E-03		11.709E+00
			155.00		133.59E-03		11.709E+00
			156.00		122.79E-03		11.691E+00
			157.00		114.30E-03		11.709E+00
			158.00		108.54E-03		11.700E+00
			159.00		103.00E-03		11.700E+00
			160.00		98.231E-03		11.700E+00
			163.00		86.549E-03		11.709E+00
			166.00		78.000E-03		11.700E+00
			169.00		71.275E-03		11.718E+00
			172.00		65.488E-03		11.709E+00
			175.00		60.646E-03		11.709E+00
			178.00		56.528E-03		11.718E+00
			180.00		54.378E-03		11.718E+00
		END_DATA
	END_SCAN  2
	BEGIN_SCAN  3
		TASK_NAME=tba PDD Profiles
		PROGRAM=tbaScan
		COMMENT=BC=71.5
		MEAS_DATE=16-Apr-2014 13:34:09
		LINAC=U2B FFF
		MODALITY=X
		ISOCENTER=1000.00
		INPLANE_AXIS=GT
		CROSSPLANE_AXIS=AB
		DEPTH_AXIS=Depth
		INPLANE_AXIS_DIR=GUN_TARGET
		CROSSPLANE_AXIS_DIR=LEFT_RIGHT
		DEPTH_AXIS_DIR=UP_DOWN
		ENERGY=10.00
		NOMINAL_DMAX=23.00
		SSD=1000.00
		SCD=548.00
		WEDGE_ANGLE=0.00
		FIELD_INPLANE=100.00
		FIELD_CROSSPLANE=100.00
		FIELD_TYPE=RECTANGULAR
		GANTRY=0.00
		GANTRY_UPRIGHT_POSITION=0
		GANTRY_ROTATION=CW
		COLL_ANGLE=90.00
		COLL_OFFSET_INPLANE=0.00
		COLL_OFFSET_CROSSPLANE=0.00
		SCAN_DEVICE=MP3
		SCAN_DEVICE_SETUP=BARA_TARGET_GUN
		ELECTROMETER=TANDEM
		RANGE_FIELD=MEDIUM
		RANGE_REFERENCE=HIGH
		DETECTOR=DOSIMETRY_DIODE
		DETECTOR_RADIUS=0.00
		DETECTOR_NAME=PTW 60008 Diode P
		DETECTOR_SN=0552
		DETECTOR_CALIBRATION=15000000.00
		DETECTOR_IS_CALIBRATED=0
		DETECTOR_REFERENCE=DOSIMETRY_DIODE
		DETECTOR_REFERENCE_RADIUS=0.00
		DETECTOR_REFERENCE_NAME=PTW 60012 Diode E
		DETECTOR_REFERENCE_SN=0398
		DETECTOR_REFERENCE_IS_CALIBRATED=0
		DETECTOR_REFERENCE_CALIBRATION=5000000.00
		DETECTOR_HV=-200.0
		DETECTOR_REFERENCE_HV=0.0
		REF_FIELD_DEPTH=0.00
		REF_FIELD_DEFINED=ISOCENTER
		REF_FIELD_INPLANE=100.00
		REF_FIELD_CROSSPLANE=100.00
		REF_SCAN_POSITIONS=0.00;1.00;2.00;3.00;4.00;5.00;6.00;7.00;8.00;9.00;10.00;11.00;12.00;13.00;14.00;15.00;16.00;17.00;18.00;19.00;20.00;21.00;22.00;23.00;24.00;25.00;26.00;27.00;28.00;29.00;30.00;31.00;32.00;33.00;34.00;35.00;36.00;37.00;38.00;39.00;40.00;41.00;42.00;43.00;44.00;45.00;46.00;47.00;48.00;49.00;50.00;52.50;55.00;57.50;60.00;62.50;65.00;67.50;70.00;72.50;75.00;77.50;80.00;82.50;85.00;87.50;90.00;92.50;95.00;97.50;100.00;102.50;105.00;107.50;110.00;115.00;120.00;125.00;130.00;135.00;140.00;145.00;150.00;155.00;160.00;165.00;170.00;175.00;180.00;185.00;190.00;195.00;200.00;205.00;210.00;215.00;220.00;225.00;230.00;235.00;240.00;245.00;250.00;255.00;260.00;265.00;270.00;275.00;280.00;285.00;290.00;295.00;300.00;
		SCAN_CURVETYPE=PDD
		SCAN_OFFAXIS_INPLANE=0.00
		SCAN_OFFAXIS_CROSSPLANE=0.00
		SCAN_ANGLE=0.00
		SCAN_DIAGONAL=NOT_DIAGONAL
		SCAN_DIRECTION=NEGATIVE
		MEAS_MEDIUM=AIR
		MEAS_PRESET=REFERENCE_DOSEMETER
		MEAS_TIME=0.300
		MEAS_UNIT=A.U.
		SCAN_SPEEDS=20.00; 4.00;40.00; 8.00;100.00; 10.00;400.00; 25.00;
		DELAY_TIMES=20.00; 0.000;150.00; 0.000;400.00; 0.000;
		INCLINATION_ANGLE=0.00
		PRESSURE=1013.25
		TEMPERATURE=20.00
		NORM_TEMPERATURE=20.00
		CORRECTION_FACTOR=1.0000
		EXPECTED_MAX_DOSE_RATE=5.00
		CORRECTIONS=SMOOTHED_CORR;
		BEGIN_DATA
			0.00		283.67E-03
			1.00		298.66E-03
			2.00		318.09E-03
			3.00		347.41E-03
			4.00		386.33E-03
			5.00		428.24E-03
			6.00		464.83E-03
			7.00		492.97E-03
			8.00		514.98E-03
			9.00		532.80E-03
			10.00		547.74E-03
			11.00		560.28E-03
			12.00		570.54E-03
			13.00		579.64E-03
			14.00		587.57E-03
			15.00		593.93E-03
			16.00		599.31E-03
			17.00		603.92E-03
			18.00		607.49E-03
			19.00		610.22E-03
			20.00		612.30E-03
			21.00		613.71E-03
			22.00		614.83E-03
			23.00		615.49E-03
			24.00		615.48E-03
			25.00		615.24E-03
			26.00		614.92E-03
			27.00		614.51E-03
			28.00		613.98E-03
			29.00		612.99E-03
			30.00		611.58E-03
			31.00		609.83E-03
			32.00		608.02E-03
			33.00		606.53E-03
			34.00		604.78E-03
			35.00		602.38E-03
			36.00		600.00E-03
			37.00		597.89E-03
			38.00		595.62E-03
			39.00		593.50E-03
			40.00		591.48E-03
			41.00		588.75E-03
			42.00		585.89E-03
			43.00		583.58E-03
			44.00		581.27E-03
			45.00		578.64E-03
			46.00		576.09E-03
			47.00		573.75E-03
			48.00		571.11E-03
			49.00		568.37E-03
			50.00		565.89E-03
			52.50		559.71E-03
			55.00		553.31E-03
			57.50		547.06E-03
			60.00		540.96E-03
			62.50		534.89E-03
			65.00		528.77E-03
			67.50		522.62E-03
			70.00		516.73E-03
			72.50		510.93E-03
			75.00		504.76E-03
			77.50		498.65E-03
			80.00		492.80E-03
			82.50		486.99E-03
			85.00		481.38E-03
			87.50		475.83E-03
			90.00		470.14E-03
			92.50		464.48E-03
			95.00		458.98E-03
			97.50		453.47E-03
			100.00		447.96E-03
			102.50		442.70E-03
			105.00		437.48E-03
			107.50		432.27E-03
			110.00		427.22E-03
			115.00		417.23E-03
			120.00		407.51E-03
			125.00		397.92E-03
			130.00		388.35E-03
			135.00		379.09E-03
			140.00		370.24E-03
			145.00		361.47E-03
			150.00		352.70E-03
			155.00		344.22E-03
			160.00		335.96E-03
			165.00		328.01E-03
			170.00		320.42E-03
			175.00		312.78E-03
			180.00		305.17E-03
			185.00		297.93E-03
			190.00		290.87E-03
			195.00		283.87E-03
			200.00		277.32E-03
			205.00		271.02E-03
			210.00		264.52E-03
			215.00		258.09E-03
			220.00		251.94E-03
			225.00		246.11E-03
			230.00		240.47E-03
			235.00		234.77E-03
			240.00		229.25E-03
			245.00		223.93E-03
			250.00		218.69E-03
			255.00		213.60E-03
			260.00		208.64E-03
			265.00		203.82E-03
			270.00		199.10E-03
			275.00		194.47E-03
			280.00		190.09E-03
			285.00		185.83E-03
			290.00		181.46E-03
			295.00		177.15E-03
			300.00		172.99E-03
		END_DATA
	END_SCAN  3
	BEGIN_SCAN  4
		TASK_NAME=tba PDD Profiles
		PROGRAM=tbaScan
		COMMENT=X6 FFF BC: 47.5 Gun optimaal
		MEAS_DATE=03-Jan-2014 10:36:40
		LINAC=U2B FFF
		MODALITY=X
		ISOCENTER=1000.00
		INPLANE_AXIS=GT
		CROSSPLANE_AXIS=AB
		DEPTH_AXIS=Depth
		INPLANE_AXIS_DIR=GUN_TARGET
		CROSSPLANE_AXIS_DIR=LEFT_RIGHT
		DEPTH_AXIS_DIR=UP_DOWN
		ENERGY=6.00
		NOMINAL_DMAX=15.00
		SSD=1000.00
		SCD=548.00
		WEDGE_ANGLE=0.00
		FIELD_INPLANE=100.00
		FIELD_CROSSPLANE=100.00
		FIELD_TYPE=RECTANGULAR
		GANTRY=0.00
		GANTRY_UPRIGHT_POSITION=0
		GANTRY_ROTATION=CW
		COLL_ANGLE=90.00
		COLL_OFFSET_INPLANE=0.00
		COLL_OFFSET_CROSSPLANE=0.00
		SCAN_DEVICE=MP3
		SCAN_DEVICE_SETUP=BARA_TARGET_GUN
		ELECTROMETER=TANDEM
		RANGE_FIELD=MEDIUM
		RANGE_REFERENCE=HIGH
		DETECTOR=PLANE_PARALLEL_CHAMBER
		DETECTOR_SUBCODE=ROOS
		DETECTOR_RADIUS=0.00
		DETECTOR_NAME=PTW 34001 Roos
		DETECTOR_SN=1266
		DETECTOR_CALIBRATION=100000000.00
		DETECTOR_IS_CALIBRATED=0
		DETECTOR_REFERENCE=DOSIMETRY_DIODE
		DETECTOR_REFERENCE_RADIUS=0.00
		DETECTOR_REFERENCE_NAME=PTW 60008 Diode P
		DETECTOR_REFERENCE_SN=0553
		DETECTOR_REFERENCE_IS_CALIBRATED=0
		DETECTOR_REFERENCE_CALIBRATION=15000000.00
		DETECTOR_HV=-200.0
		DETECTOR_REFERENCE_HV=0.0
		REF_FIELD_DEPTH=0.00
		REF_FIELD_DEFINED=ISOCENTER
		REF_FIELD_INPLANE=100.00
		REF_FIELD_CROSSPLANE=100.00
		REF_SCAN_POSITIONS=0.00;1.00;2.00;3.00;4.00;5.00;6.00;7.00;8.00;9.00;10.00;11.00;12.00;13.00;14.00;15.00;16.00;17.00;18.00;19.00;20.00;21.00;22.00;23.00;24.00;25.00;26.00;27.00;28.00;29.00;30.00;31.00;32.00;33.00;34.00;35.00;36.00;37.00;38.00;39.00;40.00;42.50;45.00;47.50;50.00;52.50;55.00;57.50;60.00;62.50;65.00;67.50;70.00;72.50;75.00;77.50;80.00;82.50;85.00;87.50;90.00;92.50;95.00;97.50;100.00;102.50;105.00;107.50;110.00;115.00;120.00;125.00;130.00;135.00;140.00;145.00;150.00;155.00;160.00;165.00;170.00;175.00;180.00;185.00;190.00;195.00;200.00;205.00;210.00;215.00;220.00;225.00;230.00;235.00;240.00;245.00;250.00;255.00;260.00;265.00;270.00;275.00;280.00;285.00;290.00;295.00;300.00;
		SCAN_CURVETYPE=PDD
		SCAN_OFFAXIS_INPLANE=0.00
		SCAN_OFFAXIS_CROSSPLANE=0.00
		SCAN_ANGLE=0.00
		SCAN_DIAGONAL=NOT_DIAGONAL
		SCAN_DIRECTION=NEGATIVE
		MEAS_MEDIUM=WATER
		MEAS_PRESET=REFERENCE_DOSEMETER
		MEAS_TIME=0.300
		MEAS_UNIT=A.U.
		SCAN_SPEEDS=20.00; 5.00;40.00; 5.00;110.00; 10.00;400.00; 25.00;
		DELAY_TIMES=50.00; 0.000;110.00; 0.000;400.00; 0.000;
		INCLINATION_ANGLE=0.00
		PRESSURE=1013.25
		TEMPERATURE=20.00
		NORM_TEMPERATURE=20.00
		CORRECTION_FACTOR=1.0000
		EXPECTED_MAX_DOSE_RATE=7.00
		CORRECTIONS=SMOOTHED_CORR;
		BEGIN_DATA
			0.00		612.06E-03
			1.00		637.92E-03
			2.00		680.26E-03
			3.00		741.28E-03
			4.00		806.06E-03
			5.00		867.01E-03
			6.00		918.15E-03
			7.00		953.90E-03
			8.00		980.82E-03
			9.00		1.0038E+00
			10.00		1.0217E+00
			11.00		1.0357E+00
			12.00		1.0466E+00
			13.00		1.0538E+00
			14.00		1.0584E+00
			15.00		1.0613E+00
			16.00		1.0626E+00
			17.00		1.0631E+00
			18.00		1.0628E+00
			19.00		1.0612E+00
			20.00		1.0585E+00
			21.00		1.0559E+00
			22.00		1.0532E+00
			23.00		1.0497E+00
			24.00		1.0454E+00
			25.00		1.0415E+00
			26.00		1.0376E+00
			27.00		1.0327E+00
			28.00		1.0276E+00
			29.00		1.0232E+00
			30.00		1.0186E+00
			31.00		1.0134E+00
			32.00		1.0089E+00
			33.00		1.0052E+00
			34.00		1.0008E+00
			35.00		995.99E-03
			36.00		991.33E-03
			37.00		986.84E-03
			38.00		982.32E-03
			39.00		977.64E-03
			40.00		972.86E-03
			42.50		960.43E-03
			45.00		948.17E-03
			47.50		936.57E-03
			50.00		925.38E-03
			52.50		914.27E-03
			55.00		903.05E-03
			57.50		891.61E-03
			60.00		880.26E-03
			62.50		869.40E-03
			65.00		858.60E-03
			67.50		847.56E-03
			70.00		836.75E-03
			72.50		825.79E-03
			75.00		814.95E-03
			77.50		804.44E-03
			80.00		793.82E-03
			82.50		783.29E-03
			85.00		773.06E-03
			87.50		762.98E-03
			90.00		753.02E-03
			92.50		743.09E-03
			95.00		732.74E-03
			97.50		722.56E-03
			100.00		712.94E-03
			102.50		703.41E-03
			105.00		694.08E-03
			107.50		684.97E-03
			110.00		675.78E-03
			115.00		657.56E-03
			120.00		640.01E-03
			125.00		622.92E-03
			130.00		605.89E-03
			135.00		589.44E-03
			140.00		573.55E-03
			145.00		557.87E-03
			150.00		542.88E-03
			155.00		528.39E-03
			160.00		514.21E-03
			165.00		500.26E-03
			170.00		486.74E-03
			175.00		473.73E-03
			180.00		460.69E-03
			185.00		448.03E-03
			190.00		436.09E-03
			195.00		424.35E-03
			200.00		412.76E-03
			205.00		401.70E-03
			210.00		391.16E-03
			215.00		380.74E-03
			220.00		370.45E-03
			225.00		360.58E-03
			230.00		351.01E-03
			235.00		341.78E-03
			240.00		332.85E-03
			245.00		323.95E-03
			250.00		315.17E-03
			255.00		306.78E-03
			260.00		298.87E-03
			265.00		291.05E-03
			270.00		283.24E-03
			275.00		275.77E-03
			280.00		268.64E-03
			285.00		261.66E-03
			290.00		254.81E-03
			295.00		248.15E-03
			300.00		241.59E-03
		END_DATA
	END_SCAN  4
	BEGIN_SCAN  5
		TASK_NAME=tba PDD Profiles
		PROGRAM=tbaScan
		MEAS_DATE=10-Feb-2015 14:08:22
		LINAC=U2B
		MODALITY=X
		ISOCENTER=1000.00
		INPLANE_AXIS=GT
		CROSSPLANE_AXIS=AB
		DEPTH_AXIS=Depth
		INPLANE_AXIS_DIR=GUN_TARGET
		CROSSPLANE_AXIS_DIR=LEFT_RIGHT
		DEPTH_AXIS_DIR=UP_DOWN
		ENERGY=10.00
		NOMINAL_DMAX=23.00
		SSD=950.00
		SCD=548.00
		WEDGE_ANGLE=0.00
		FIELD_INPLANE=400.00
		FIELD_CROSSPLANE=400.00
		FIELD_TYPE=RECTANGULAR
		GANTRY=0.00
		GANTRY_UPRIGHT_POSITION=0
		GANTRY_ROTATION=CW
		COLL_ANGLE=90.00
		COLL_OFFSET_INPLANE=0.00
		COLL_OFFSET_CROSSPLANE=0.00
		SCAN_DEVICE=MP3
		SCAN_DEVICE_SETUP=BARA_LEFT_RIGHT
		ELECTROMETER=TANDEM
		RANGE_FIELD=HIGH
		RANGE_REFERENCE=HIGH
		DETECTOR=DOSIMETRY_DIODE
		DETECTOR_RADIUS=0.00
		DETECTOR_NAME=PTW 60008 Diode P
		DETECTOR_SN=0553
		DETECTOR_CALIBRATION=15000000.00
		DETECTOR_IS_CALIBRATED=0
		DETECTOR_REFERENCE=DOSIMETRY_DIODE
		DETECTOR_REFERENCE_RADIUS=0.00
		DETECTOR_REFERENCE_NAME=PTW 60008 Diode P
		DETECTOR_REFERENCE_SN=0552
		DETECTOR_REFERENCE_IS_CALIBRATED=0
		DETECTOR_REFERENCE_CALIBRATION=15000000.00
		FILTER=FFF
		REF_FIELD_DEPTH=50.00
		REF_FIELD_DEFINED=ISOCENTER
		REF_FIELD_INPLANE=100.00
		REF_FIELD_CROSSPLANE=100.00
		REF_SCAN_POSITIONS=-80.00;-78.00;-75.00;-72.00;-69.00;-66.00;-63.00;-60.00;-59.00;-58.00;-57.00;-56.00;-55.00;-54.00;-53.00;-52.00;-51.00;-50.00;-49.00;-48.00;-47.00;-46.00;-45.00;-44.00;-43.00;-42.00;-41.00;-40.00;-35.00;-30.00;-25.00;-20.00;-15.00;-10.00;-5.00;0.00;5.00;10.00;15.00;20.00;25.00;30.00;35.00;40.00;41.00;42.00;43.00;44.00;45.00;46.00;47.00;48.00;49.00;50.00;51.00;52.00;53.00;54.00;55.00;56.00;57.00;58.00;59.00;60.00;63.00;66.00;69.00;72.00;75.00;78.00;80.00;
		REF_OVERSCAN_FACTOR=1.00
		SCAN_CURVETYPE=INPLANE_PROFILE
		SCAN_DEPTH=50.00
		SCAN_OFFAXIS_INPLANE=0.00
		SCAN_OFFAXIS_CROSSPLANE=0.00
		SCAN_ANGLE=0.00
		SCAN_DIAGONAL=NOT_DIAGONAL
		SCAN_DIRECTION=POSITIVE
		MEAS_MEDIUM=WATER
		MEAS_PRESET=REFERENCE_DOSEMETER
		MEAS_TIME=0.300
		MEAS_UNIT=A.U.
		SCAN_SPEEDS=20.00; 4.00;40.00; 8.00;100.00; 10.00;400.00; 25.00;
		DELAY_TIMES=20.00; 0.000;150.00; 0.000;400.00; 0.000;
		INCLINATION_ANGLE=0.00
		PRESSURE=1013.25
		TEMPERATURE=20.00
		NORM_TEMPERATURE=20.00
		CORRECTION_FACTOR=1.0000
		EXPECTED_MAX_DOSE_RATE=7.00
		BEGIN_DATA
			-230.00		67.906E-03		7.5015E+00
			-228.00		71.129E-03		7.5033E+00
			-225.00		76.895E-03		7.4907E+00
			-222.00		83.174E-03		7.5096E+00
			-219.00		91.969E-03		7.4862E+00
			-216.00		100.31E-03		7.5186E+00
			-213.00		114.83E-03		7.5006E+00
			-210.00		138.00E-03		7.5132E+00
			-209.00		149.12E-03		7.5078E+00
			-208.00		163.99E-03		7.5132E+00
			-207.00		182.17E-03		7.5195E+00
			-206.00		205.24E-03		7.5204E+00
			-205.00		235.36E-03		7.5177E+00
			-204.00		280.13E-03		7.5339E+00
			-203.00		352.79E-03		7.5231E+00
			-202.00		479.41E-03		7.5393E+00
			-201.00		689.75E-03		7.5393E+00
			-200.00		938.51E-03		7.5384E+00
			-199.00		1.0897E+00		7.5276E+00
			-198.00		1.1614E+00		7.5384E+00
			-197.00		1.2042E+00		7.5483E+00
			-196.00		1.2395E+00		7.5222E+00
			-195.00		1.2561E+00		7.5519E+00
			-194.00		1.2774E+00		7.5456E+00
			-193.00		1.2940E+00		7.5465E+00
			-192.00		1.3100E+00		7.5366E+00
			-191.00		1.3192E+00		7.5591E+00
			-190.00		1.3333E+00		7.5537E+00
			-185.00		1.3805E+00		7.5492E+00
			-180.00		1.4177E+00		7.5735E+00
			-175.00		1.4597E+00		7.5654E+00
			-170.00		1.4967E+00		7.5645E+00
			-165.00		1.5337E+00		7.5816E+00
			-160.00		1.5738E+00		7.5771E+00
			-155.00		1.6152E+00		7.5726E+00
			-150.00		1.6566E+00		7.5681E+00
			-145.00		1.7000E+00		7.5654E+00
			-140.00		1.7378E+00		7.5870E+00
			-135.00		1.7799E+00		7.5897E+00
			-130.00		1.8245E+00		7.5915E+00
			-125.00		1.8668E+00		7.5933E+00
			-120.00		1.9162E+00		7.5996E+00
			-115.00		1.9671E+00		7.5996E+00
			-110.00		2.0132E+00		7.6086E+00
			-105.00		2.0787E+00		7.5726E+00
			-100.00		2.1321E+00		7.5897E+00
			-95.00		2.1787E+00		7.6131E+00
			-90.00		2.2420E+00		7.5870E+00
			-85.00		2.2985E+00		7.6158E+00
			-80.00		2.3632E+00		7.5978E+00
			-75.00		2.4226E+00		7.6194E+00
			-70.00		2.4970E+00		7.5978E+00
			-65.00		2.5615E+00		7.6104E+00
			-60.00		2.6438E+00		7.5879E+00
			-55.00		2.7095E+00		7.6131E+00
			-50.00		2.7874E+00		7.6005E+00
			-45.00		2.8698E+00		7.5987E+00
			-40.00		2.9489E+00		7.6086E+00
			-35.00		3.0297E+00		7.5987E+00
			-30.00		3.1067E+00		7.6104E+00
			-25.00		3.1815E+00		7.6068E+00
			-20.00		3.2513E+00		7.6041E+00
			-15.00		3.3113E+00		7.6185E+00
			-10.00		3.3637E+00		7.6014E+00
			-5.00		3.3949E+00		7.6005E+00
			0.00		3.4071E+00		7.6050E+00
			5.00		3.4024E+00		7.5996E+00
			10.00		3.3764E+00		7.5969E+00
			15.00		3.3333E+00		7.5951E+00
			20.00		3.2590E+00		7.6248E+00
			25.00		3.2016E+00		7.6068E+00
			30.00		3.1248E+00		7.6095E+00
			35.00		3.0503E+00		7.6005E+00
			40.00		2.9667E+00		7.6023E+00
			45.00		2.8801E+00		7.6185E+00
			50.00		2.8033E+00		7.6185E+00
			55.00		2.7318E+00		7.6005E+00
			60.00		2.6530E+00		7.6194E+00
			65.00		2.5821E+00		7.6194E+00
			70.00		2.5092E+00		7.6185E+00
			75.00		2.4459E+00		7.6095E+00
			80.00		2.3759E+00		7.6329E+00
			85.00		2.3182E+00		7.6131E+00
			90.00		2.2556E+00		7.6131E+00
			95.00		2.1961E+00		7.6185E+00
			100.00		2.1365E+00		7.6203E+00
			105.00		2.0896E+00		7.6149E+00
			110.00		2.0364E+00		7.6059E+00
			115.00		1.9896E+00		7.6131E+00
			120.00		1.9387E+00		7.6086E+00
			125.00		1.8870E+00		7.6122E+00
			130.00		1.8392E+00		7.6239E+00
			135.00		1.7941E+00		7.6149E+00
			140.00		1.7483E+00		7.6293E+00
			145.00		1.7102E+00		7.6149E+00
			150.00		1.6728E+00		7.6023E+00
			155.00		1.6255E+00		7.6239E+00
			160.00		1.5868E+00		7.6230E+00
			165.00		1.5488E+00		7.6239E+00
			170.00		1.5091E+00		7.6338E+00
			175.00		1.4710E+00		7.6356E+00
			180.00		1.4314E+00		7.6266E+00
			185.00		1.3887E+00		7.6347E+00
			190.00		1.3411E+00		7.6302E+00
			191.00		1.3359E+00		7.6131E+00
			192.00		1.3196E+00		7.6185E+00
			193.00		1.3035E+00		7.6293E+00
			194.00		1.2842E+00		7.6320E+00
			195.00		1.2675E+00		7.6329E+00
			196.00		1.2403E+00		7.6338E+00
			197.00		1.2080E+00		7.6140E+00
			198.00		1.1483E+00		7.6428E+00
			199.00		1.0528E+00		7.6320E+00
			200.00		866.21E-03		7.6284E+00
			201.00		613.88E-03		7.6383E+00
			202.00		431.90E-03		7.6455E+00
			203.00		330.78E-03		7.6320E+00
			204.00		272.04E-03		7.6257E+00
			205.00		234.45E-03		7.6392E+00
			206.00		205.93E-03		7.6437E+00
			207.00		184.93E-03		7.6212E+00
			208.00		167.75E-03		7.6347E+00
			209.00		152.73E-03		7.6545E+00
			210.00		141.85E-03		7.6329E+00
			213.00		119.24E-03		7.6311E+00
			216.00		106.31E-03		7.6365E+00
			219.00		97.357E-03		7.6266E+00
			222.00		89.633E-03		7.6311E+00
			225.00		82.990E-03		7.6455E+00
			228.00		77.495E-03		7.6302E+00
			230.00		74.569E-03		7.6158E+00
		END_DATA
	END_SCAN  5
	BEGIN_SCAN  6
		TASK_NAME=tba PDD Profiles
		PROGRAM=tbaScan
		MEAS_DATE=10-Feb-2015 14:08:22
		LINAC=U2B
		MODALITY=X
		ISOCENTER=1000.00
		INPLANE_AXIS=GT
		CROSSPLANE_AXIS=AB
		DEPTH_AXIS=Depth
		INPLANE_AXIS_DIR=GUN_TARGET
		CROSSPLANE_AXIS_DIR=LEFT_RIGHT
		DEPTH_AXIS_DIR=UP_DOWN
		ENERGY=10.00
		NOMINAL_DMAX=23.00
		SSD=950.00
		SCD=548.00
		WEDGE_ANGLE=0.00
		FIELD_INPLANE=400.00
		FIELD_CROSSPLANE=400.00
		FIELD_TYPE=RECTANGULAR
		GANTRY=0.00
		GANTRY_UPRIGHT_POSITION=0
		GANTRY_ROTATION=CW
		COLL_ANGLE=90.00
		COLL_OFFSET_INPLANE=0.00
		COLL_OFFSET_CROSSPLANE=0.00
		SCAN_DEVICE=MP3
		SCAN_DEVICE_SETUP=BARA_LEFT_RIGHT
		ELECTROMETER=TANDEM
		RANGE_FIELD=HIGH
		RANGE_REFERENCE=HIGH
		DETECTOR=DOSIMETRY_DIODE
		DETECTOR_RADIUS=0.00
		DETECTOR_NAME=PTW 60008 Diode P
		DETECTOR_SN=0553
		DETECTOR_CALIBRATION=15000000.00
		DETECTOR_IS_CALIBRATED=0
