BEGIN_SCAN_DATA
	FORMAT=CC-Export V1.9                  
	FILE_CREATION_DATE=14-May-2013 15:51:47
	LAST_MODIFIED=14-May-2013 15:51:47
	BEGIN_SCAN  1
		MEAS_DATE=14-May-2013 15:49:07
		LINAC=U9
		MODALITY=X
		INPLANE_AXIS_DIR=TARGET_GUN
		CROSSPLANE_AXIS_DIR=LEFT_RIGHT
		DEPTH_AXIS_DIR=UP_DOWN
		ENERGY=6.00
		SSD=1000.00
		WEDGE=None
		FIELD_INPLANE=210.00
		FIELD_CROSSPLANE=210.00
		FIELD_TYPE=RECTANGULAR
		GANTRY=0.00
		GANTRY_UPRIGHT_POSITION=0
		GANTRY_ROTATION=CW
		COLL_ANGLE=0.00
		COLL_OFFSET_INPLANE=0.00
		COLL_OFFSET_CROSSPLANE=0.00
		SCAN_CURVETYPE=INPLANE_PROFILE
		SCAN_DEPTH=50.00
		SCAN_OFFAXIS_CROSSPLANE=0.00
		PRESSURE=1025.30
		TEMPERATURE=21.50
		NORM_TEMPERATURE=20.00
		CORRECTIONS=AIR_DENSITY_CORR;
		BEGIN_DATA
			-210.00		-3.3194E-03
			-207.00		-2.6216E-03
			-204.00		-2.0631E-03
			-201.00		-1.3115E-03
			-198.00		-1.1426E-03
			-195.00		-1.1546E-03
			-192.00		-607.72E-06
			-189.00		-327.51E-06
			-186.00		111.92E-06
			-183.00		726.86E-06
			-180.00		1.0369E-03
			-177.00		1.5345E-03
			-174.00		1.9313E-03
			-171.00		1.8606E-03
			-168.00		1.8070E-03
			-165.00		2.4381E-03
			-162.00		3.2771E-03
			-159.00		3.9806E-03
			-156.00		4.7372E-03
			-153.00		5.4337E-03
			-150.00		6.2170E-03
			-147.00		6.5381E-03
			-144.00		7.1995E-03
			-141.00		8.6780E-03
			-138.00		9.8035E-03
			-135.00		11.331E-03
			-132.00		13.662E-03
			-129.00		14.945E-03
			-126.00		15.991E-03
			-123.00		18.725E-03
			-120.00		21.318E-03
			-117.00		23.929E-03
			-114.00		27.640E-03
			-111.00		31.072E-03
			-108.00		34.427E-03
			-105.00		38.635E-03
			-102.00		43.632E-03
			-99.00		48.619E-03
			-96.00		53.924E-03
			-93.00		62.209E-03
			-90.00		75.299E-03
			-87.00		96.425E-03
			-84.00		147.42E-03
			-81.00		315.43E-03
			-78.00		603.31E-03
			-75.00		830.09E-03
			-72.00		917.95E-03
			-69.00		945.65E-03
			-66.00		960.27E-03
			-63.00		969.70E-03
			-60.00		976.06E-03
			-57.00		980.76E-03
			-54.00		984.04E-03
			-51.00		984.89E-03
			-48.00		986.07E-03
			-45.00		987.43E-03
			-42.00		987.78E-03
			-39.00		988.50E-03
			-36.00		988.69E-03
			-33.00		988.01E-03
			-30.00		988.73E-03
			-27.00		990.40E-03
			-24.00		990.98E-03
			-21.00		992.63E-03
			-18.00		994.90E-03
			-15.00		996.51E-03
			-12.00		998.27E-03
			-9.00		1.0001E+00
			-6.00		1.0017E+00
			-3.00		1.0008E+00
			0.00		1000.00E-03
			3.00		1.0019E+00
			6.00		1.0032E+00
			9.00		1.0034E+00
			12.00		1.0048E+00
			15.00		1.0053E+00
			18.00		1.0031E+00
			21.00		1.0008E+00
			24.00		999.26E-03
			27.00		998.16E-03
			30.00		998.35E-03
			33.00		998.78E-03
			36.00		998.78E-03
			39.00		999.53E-03
			42.00		999.73E-03
			45.00		998.33E-03
			48.00		997.21E-03
			51.00		996.02E-03
			54.00		993.77E-03
			57.00		991.12E-03
			60.00		987.72E-03
			63.00		982.89E-03
			66.00		975.50E-03
			69.00		964.52E-03
			72.00		946.29E-03
			75.00		902.72E-03
			78.00		754.66E-03
			81.00		477.46E-03
			84.00		231.01E-03
			87.00		121.60E-03
			90.00		87.242E-03
			93.00		70.205E-03
			96.00		59.228E-03
			99.00		51.276E-03
			102.00		44.411E-03
			105.00		38.606E-03
			108.00		33.878E-03
			111.00		29.527E-03
			114.00		25.877E-03
			117.00		22.950E-03
			120.00		20.039E-03
			123.00		17.591E-03
			126.00		16.314E-03
			129.00		14.991E-03
			132.00		12.962E-03
			135.00		10.823E-03
			138.00		8.4856E-03
			141.00		7.1111E-03
			144.00		6.9055E-03
			147.00		6.4067E-03
			150.00		5.5007E-03
			153.00		4.3414E-03
			156.00		3.4047E-03
			159.00		3.1770E-03
			162.00		3.3502E-03
			165.00		3.3023E-03
			168.00		2.5464E-03
			171.00		1.1409E-03
			174.00		-371.16E-06
			177.00		-1.0123E-03
			180.00		-1.0359E-03
			183.00		-730.74E-06
			186.00		-103.80E-06
			189.00		149.75E-06
			192.00		318.49E-06
			195.00		-372.28E-06
			198.00		-1.7836E-03
			201.00		-1.5298E-03
			204.00		-759.35E-06
			207.00		-593.28E-06
			210.00		839.81E-06
		END_DATA
	END_SCAN  1
	BEGIN_SCAN  2
		MEAS_DATE=14-May-2013 15:49:07
		LINAC=U9
		MODALITY=X
		INPLANE_AXIS_DIR=TARGET_GUN
		CROSSPLANE_AXIS_DIR=LEFT_RIGHT
		DEPTH_AXIS_DIR=UP_DOWN
		ENERGY=6.00
		SSD=1000.00
		WEDGE=None
		FIELD_INPLANE=210.00
		FIELD_CROSSPLANE=210.00
		FIELD_TYPE=RECTANGULAR
		GANTRY=0.00
		GANTRY_UPRIGHT_POSITION=0
		GANTRY_ROTATION=CW
		COLL_ANGLE=0.00
		COLL_OFFSET_INPLANE=0.00
		COLL_OFFSET_CROSSPLANE=0.00
		SCAN_CURVETYPE=CROSSPLANE_PROFILE
		SCAN_DEPTH=50.00
		SCAN_OFFAXIS_INPLANE=0.00
		PRESSURE=1025.30
		TEMPERATURE=21.50
		NORM_TEMPERATURE=20.00
		CORRECTIONS=AIR_DENSITY_CORR;
		BEGIN_DATA
			-210.00		-1.5711E-03
			-207.00		-2.2053E-03
			-204.00		-2.0977E-03
			-201.00		-2.2897E-03
			-198.00		-1.7795E-03
			-195.00		-983.18E-06
			-192.00		-1.2478E-03
			-189.00		-1.2801E-03
			-186.00		-521.36E-06
			-183.00		86.759E-06
			-180.00		895.74E-06
			-177.00		2.1929E-03
			-174.00		3.2303E-03
			-171.00		3.9015E-03
			-168.00		4.9094E-03
			-165.00		6.0719E-03
			-162.00		6.7266E-03
			-159.00		7.4564E-03
			-156.00		8.9195E-03
			-153.00		11.035E-03
			-150.00		12.970E-03
			-147.00		13.898E-03
			-144.00		14.832E-03
			-141.00		17.274E-03
			-138.00		20.640E-03
			-135.00		24.104E-03
			-132.00		28.276E-03
			-129.00		33.281E-03
			-126.00		38.701E-03
			-123.00		44.699E-03
			-120.00		53.505E-03
			-117.00		68.950E-03
			-114.00		95.519E-03
			-111.00		165.56E-03
			-108.00		347.28E-03
			-105.00		614.14E-03
			-102.00		819.54E-03
			-99.00		905.65E-03
			-96.00		932.94E-03
			-93.00		947.12E-03
			-90.00		956.90E-03
			-87.00		963.16E-03
			-84.00		969.33E-03
			-81.00		975.31E-03
			-78.00		978.74E-03
			-75.00		981.05E-03
			-72.00		983.84E-03
			-69.00		986.98E-03
			-66.00		989.39E-03
			-63.00		989.87E-03
			-60.00		989.95E-03
			-57.00		991.08E-03
			-54.00		992.47E-03
			-51.00		993.35E-03
			-48.00		993.58E-03
			-45.00		993.17E-03
			-42.00		993.23E-03
			-39.00		994.22E-03
			-36.00		995.17E-03
			-33.00		995.54E-03
			-30.00		994.59E-03
			-27.00		993.54E-03
			-24.00		994.57E-03
			-21.00		994.65E-03
			-18.00		993.52E-03
			-15.00		994.84E-03
			-12.00		996.43E-03
			-9.00		995.85E-03
			-6.00		995.36E-03
			6.00		997.38E-03
			9.00		998.18E-03
			12.00		999.26E-03
			15.00		999.75E-03
			18.00		998.66E-03
			21.00		996.80E-03
			24.00		995.79E-03
			27.00		996.68E-03
			30.00		997.81E-03
			33.00		997.13E-03
			36.00		996.33E-03
			39.00		996.43E-03
			42.00		996.22E-03
			45.00		996.18E-03
			48.00		996.31E-03
			51.00		996.45E-03
			54.00		997.21E-03
			57.00		996.16E-03
			60.00		992.61E-03
			63.00		988.98E-03
			66.00		986.79E-03
			69.00		985.43E-03
			72.00		983.38E-03
			75.00		980.60E-03
			78.00		978.55E-03
			81.00		975.77E-03
			84.00		970.22E-03
			87.00		963.94E-03
			90.00		956.37E-03
			93.00		944.15E-03
			96.00		920.24E-03
			99.00		852.73E-03
			102.00		677.45E-03
			105.00		412.03E-03
			108.00		199.54E-03
			111.00		106.72E-03
			114.00		75.640E-03
			117.00		60.527E-03
			120.00		50.898E-03
			123.00		43.851E-03
			126.00		38.099E-03
			129.00		32.943E-03
			132.00		28.408E-03
			135.00		24.870E-03
			138.00		21.869E-03
			141.00		18.676E-03
			144.00		16.134E-03
			147.00		14.326E-03
			150.00		12.199E-03
			153.00		10.044E-03
			156.00		8.1619E-03
			159.00		6.5862E-03
			162.00		5.6712E-03
			165.00		4.7542E-03
			168.00		3.8693E-03
			171.00		3.3159E-03
			174.00		1.8553E-03
			177.00		-25.221E-06
			180.00		-825.98E-06
			183.00		-494.26E-06
			186.00		184.79E-06
			189.00		93.436E-06
			192.00		-670.02E-06
			195.00		-1.6368E-03
			198.00		-2.7500E-03
			201.00		-3.1636E-03
			204.00		-2.5574E-03
			207.00		-2.0459E-03
			210.00		-2.0779E-03
		END_DATA
	END_SCAN  2
	BEGIN_SCAN  3
		MEAS_DATE=14-May-2013 15:49:07
		LINAC=U9
		MODALITY=X
		INPLANE_AXIS_DIR=TARGET_GUN
		CROSSPLANE_AXIS_DIR=LEFT_RIGHT
		DEPTH_AXIS_DIR=UP_DOWN
		ENERGY=6.00
		SSD=1000.00
		WEDGE=None
		FIELD_INPLANE=210.00
		FIELD_CROSSPLANE=210.00
		FIELD_TYPE=RECTANGULAR
		GANTRY=0.00
		GANTRY_UPRIGHT_POSITION=0
		GANTRY_ROTATION=CW
		COLL_ANGLE=0.00
		COLL_OFFSET_INPLANE=0.00
		COLL_OFFSET_CROSSPLANE=0.00
		SCAN_CURVETYPE=INPLANE_PROFILE
		SCAN_DEPTH=50.00
		SCAN_OFFAXIS_CROSSPLANE=0.00
		SCAN_ANGLE=0.00
		SCAN_DIAGONAL=FIRST_DIAGONAL
		PRESSURE=1025.30
		TEMPERATURE=21.50
		NORM_TEMPERATURE=20.00
		CORRECTIONS=AIR_DENSITY_CORR;
		BEGIN_DATA
			-295.40		-4.7438E-03
			-292.40		-5.7854E-03
			-289.40		-5.3620E-03
			-286.40		-5.9214E-03
			-283.40		-6.7881E-03
			-280.40		-6.2368E-03
			-277.40		-5.2130E-03
			-274.40		-5.2795E-03
			-271.40		-5.6198E-03
			-268.40		-4.6295E-03
			-265.40		-3.7120E-03
			-262.40		-4.5880E-03
			-259.40		-5.8927E-03
			-256.40		-5.7907E-03
			-253.40		-4.6190E-03
			-250.40		-4.0146E-03
			-247.40		-3.8679E-03
			-244.40		-3.8311E-03
			-241.40		-4.6268E-03
			-238.40		-5.0745E-03
			-235.40		-4.0437E-03
			-232.40		-3.5599E-03
			-229.40		-3.9781E-03
			-226.40		-3.9467E-03
			-223.40		-4.3079E-03
			-220.40		-4.2388E-03
			-217.40		-3.2916E-03
			-214.40		-3.0724E-03
			-211.40		-2.6957E-03
			-208.40		-1.6745E-03
			-205.40		-1.4987E-03
			-202.40		-1.1002E-03
			-199.40		204.40E-06
			-196.40		319.00E-06
			-193.40		-224.69E-06
			-190.40		612.76E-06
			-187.40		1.4531E-03
			-184.40		1.9735E-03
			-181.40		3.2602E-03
			-178.40		4.4342E-03
			-175.40		5.4910E-03
			-172.40		6.5163E-03
			-169.40		7.3277E-03
			-166.40		8.1549E-03
			-163.40		9.5705E-03
			-160.40		11.761E-03
			-157.40		13.726E-03
			-154.40		16.242E-03
			-151.40		19.461E-03
			-148.40		21.768E-03
			-145.40		24.094E-03
			-142.40		27.064E-03
			-139.40		30.389E-03
			-136.40		35.393E-03
			-133.40		41.603E-03
			-130.40		49.278E-03
			-127.40		59.080E-03
			-124.40		72.414E-03
			-121.40		97.573E-03
			-118.40		154.62E-03
			-115.40		275.72E-03
			-112.40		464.50E-03
			-109.40		666.59E-03
			-106.40		814.65E-03
			-103.40		889.84E-03
			-100.40		921.48E-03
			-97.40		937.48E-03
			-94.40		948.13E-03
			-91.40		956.26E-03
			-88.40		962.04E-03
			-85.40		966.48E-03
			-82.40		969.80E-03
			-79.40		972.61E-03
			-76.40		975.79E-03
			-73.40		978.33E-03
			-70.40		980.00E-03
			-67.40		981.18E-03
			-64.40		982.76E-03
			-61.40		985.43E-03
			-58.40		987.62E-03
			-55.40		988.81E-03
			-52.40		989.31E-03
			-49.40		989.60E-03
			-46.40		989.49E-03
			-43.40		989.49E-03
			-40.40		990.77E-03
			-37.40		991.97E-03
			-34.40		993.02E-03
			-31.40		994.18E-03
			-28.40		995.46E-03
			-25.40		996.37E-03
			-22.40		996.26E-03
			-19.40		996.43E-03
			-16.40		997.15E-03
			-13.40		997.58E-03
			13.40		997.48E-03
			16.40		997.40E-03
			19.40		996.43E-03
			22.40		995.25E-03
			25.40		995.36E-03
			28.40		996.00E-03
			31.40		996.68E-03
			34.40		997.58E-03
			37.40		997.63E-03
			40.40		997.09E-03
			43.40		996.41E-03
			46.40		995.25E-03
			49.40		994.51E-03
			52.40		993.95E-03
			55.40		993.87E-03
			58.40		993.46E-03
			61.40		990.53E-03
			64.40		987.31E-03
			67.40		985.22E-03
			70.40		983.45E-03
			73.40		982.25E-03
			76.40		981.30E-03
			79.40		980.04E-03
			82.40		977.77E-03
			85.40		974.38E-03
			88.40		969.86E-03
			91.40		964.13E-03
			94.40		957.58E-03
			97.40		949.53E-03
			100.40		938.41E-03
			103.40		920.18E-03
			106.40		881.79E-03
			109.40		792.23E-03
			112.40		629.97E-03
			115.40		425.98E-03
			118.40		247.34E-03
			121.40		137.44E-03
			124.40		86.563E-03
			127.40		64.362E-03
			130.40		52.258E-03
			133.40		43.457E-03
			136.40		36.530E-03
			139.40		30.375E-03
			142.40		26.084E-03
			145.40		23.759E-03
			148.40		21.082E-03
			151.40		18.960E-03
			154.40		18.012E-03
			157.40		16.471E-03
			160.40		13.603E-03
			163.40		11.000E-03
			166.40		9.9697E-03
			169.40		9.0338E-03
			172.40		7.4800E-03
			175.40		5.8248E-03
			178.40		4.4012E-03
			181.40		3.8730E-03
			184.40		3.2342E-03
			187.40		2.1681E-03
			190.40		1.3213E-03
			193.40		1.0098E-03
			196.40		1.0120E-03
			199.40		309.63E-06
			202.40		-262.65E-06
			205.40		-841.95E-06
			208.40		-1.7509E-03
			211.40		-1.8508E-03
			214.40		-2.0177E-03
			217.40		-2.1559E-03
			220.40		-1.9402E-03
			223.40		-2.7223E-03
			226.40		-3.1388E-03
			229.40		-2.5392E-03
			232.40		-2.0176E-03
			235.40		-2.3875E-03
			238.40		-4.0916E-03
			241.40		-4.7015E-03
			244.40		-3.6656E-03
			247.40		-3.4986E-03
			250.40		-4.3414E-03
			253.40		-4.6415E-03
			256.40		-4.0014E-03
			259.40		-3.5145E-03
			262.40		-4.5114E-03
			265.40		-5.4050E-03
			268.40		-4.8683E-03
			271.40		-3.5950E-03
			274.40		-3.2113E-03
			277.40		-4.9944E-03
			280.40		-5.7581E-03
			283.40		-3.9653E-03
			286.40		-3.4338E-03
			289.40		-5.1177E-03
			292.40		-6.1524E-03
			295.40		-7.3708E-03
		END_DATA
	END_SCAN  3
	BEGIN_SCAN  4
		MEAS_DATE=14-May-2013 15:49:07
		LINAC=U9
		MODALITY=X
		INPLANE_AXIS_DIR=GUN_TARGET
		CROSSPLANE_AXIS_DIR=LEFT_RIGHT
		DEPTH_AXIS_DIR=UP_DOWN
		ENERGY=6.00
		SSD=1000.00
		WEDGE=None
		FIELD_INPLANE=210.00
		FIELD_CROSSPLANE=210.00
		FIELD_TYPE=RECTANGULAR
		GANTRY=0.00
		GANTRY_UPRIGHT_POSITION=0
		GANTRY_ROTATION=CW
		COLL_ANGLE=0.00
		COLL_OFFSET_INPLANE=0.00
		COLL_OFFSET_CROSSPLANE=0.00
		SCAN_CURVETYPE=INPLANE_PROFILE
		SCAN_DEPTH=50.00
		SCAN_OFFAXIS_CROSSPLANE=0.00
		SCAN_ANGLE=0.00
		SCAN_DIAGONAL=SECOND_DIAGONAL
		PRESSURE=1025.30
		TEMPERATURE=21.50
		NORM_TEMPERATURE=20.00
		CORRECTIONS=AIR_DENSITY_CORR;
		BEGIN_DATA
			-295.40		-7.2581E-03
			-292.40		-7.3739E-03
			-289.40		-6.4830E-03
			-286.40		-5.1818E-03
			-283.40		-4.8179E-03
			-280.40		-5.2943E-03
			-277.40		-5.3631E-03
			-274.40		-5.0002E-03
			-271.40		-4.3771E-03
			-268.40		-3.7304E-03
			-265.40		-5.3577E-03
			-262.40		-7.7892E-03
			-259.40		-6.7759E-03
			-256.40		-4.3418E-03
			-253.40		-4.2107E-03
			-250.40		-5.4840E-03
			-247.40		-5.0586E-03
			-244.40		-3.6998E-03
			-241.40		-4.4119E-03
			-238.40		-5.3860E-03
			-235.40		-4.9077E-03
			-232.40		-4.1665E-03
			-229.40		-3.9760E-03
			-226.40		-4.2798E-03
			-223.40		-3.0556E-03
			-220.40		-2.7215E-03
			-217.40		-5.7784E-03
			-214.40		-6.2989E-03
			-211.40		-3.3539E-03
			-208.40		-1.6507E-03
			-205.40		-1.6355E-03
			-202.40		-1.9764E-03
			-199.40		-1.5486E-03
			-196.40		-675.67E-06
			-193.40		-930.79E-06
			-190.40		-1.4487E-03
			-187.40		88.212E-06
			-184.40		1.7412E-03
			-181.40		1.3642E-03
			-178.40		2.3652E-03
			-175.40		4.6766E-03
			-172.40		5.7468E-03
			-169.40		8.7952E-03
			-166.40		11.759E-03
			-163.40		13.928E-03
			-160.40		17.291E-03
			-157.40		17.695E-03
			-154.40		17.351E-03
			-151.40		21.567E-03
			-148.40		26.893E-03
			-145.40		28.201E-03
			-142.40		29.357E-03
			-139.40		34.765E-03
			-136.40		40.689E-03
			-133.40		43.248E-03
			-130.40		47.688E-03
			-127.40		56.056E-03
			-124.40		69.728E-03
			-121.40		94.280E-03
			-118.40		138.88E-03
			-115.40		238.94E-03
			-112.40		414.86E-03
			-109.40		622.61E-03
			-106.40		790.58E-03
			-103.40		885.20E-03
			-100.40		925.82E-03
			-97.40		941.86E-03
			-94.40		950.94E-03
			-91.40		960.04E-03
			-88.40		966.58E-03
			-85.40		967.51E-03
			-82.40		968.13E-03
			-79.40		971.50E-03
			-76.40		974.61E-03
			-73.40		977.60E-03
			-70.40		980.35E-03
			-67.40		982.70E-03
			-64.40		985.94E-03
			-61.40		989.31E-03
			-58.40		991.21E-03
			-55.40		992.40E-03
			-52.40		993.42E-03
			-49.40		994.26E-03
			-46.40		994.65E-03
			-43.40		994.88E-03
			-40.40		995.19E-03
			-37.40		994.82E-03
			-34.40		994.76E-03
			-31.40		995.21E-03
			-28.40		995.44E-03
			-25.40		996.00E-03
			-22.40		995.98E-03
			-19.40		996.08E-03
			-16.40		998.18E-03
			-13.40		999.63E-03
			13.40		995.50E-03
			16.40		995.00E-03
			19.40		995.07E-03
			22.40		995.19E-03
			25.40		995.17E-03
			28.40		996.00E-03
			31.40		996.78E-03
			34.40		996.16E-03
			37.40		995.91E-03
			40.40		997.15E-03
			43.40		997.79E-03
			46.40		996.74E-03
			49.40		996.16E-03
			52.40		996.31E-03
			55.40		995.60E-03
			58.40		994.70E-03
			61.40		993.11E-03
			64.40		989.93E-03
			67.40		986.58E-03
			70.40		983.86E-03
			73.40		982.15E-03
			76.40		980.62E-03
			79.40		977.05E-03
			82.40		971.06E-03
			85.40		964.95E-03
			88.40		960.66E-03
			91.40		956.34E-03
			94.40		950.54E-03
			97.40		943.49E-03
			100.40		933.04E-03
			103.40		913.23E-03
			106.40		865.94E-03
			109.40		758.17E-03
			112.40		579.57E-03
			115.40		375.72E-03
			118.40		214.95E-03
			121.40		126.44E-03
			124.40		87.614E-03
			127.40		68.919E-03
			130.40		56.502E-03
			133.40		46.276E-03
			136.40		39.795E-03
			139.40		35.324E-03
			142.40		30.639E-03
			145.40		26.263E-03
			148.40		22.998E-03
			151.40		21.115E-03
			154.40		19.742E-03
			157.40		17.676E-03
			160.40		14.165E-03
			163.40		11.525E-03
			166.40		10.661E-03
			169.40		9.5024E-03
			172.40		8.4117E-03
			175.40		6.6056E-03
			178.40		4.0631E-03
			181.40		3.0542E-03
			184.40		2.0555E-03
			187.40		1.1182E-03
			190.40		1.6108E-03
			193.40		1.2480E-03
			196.40		-510.57E-06
			199.40		-1.6506E-03
			202.40		-1.1313E-03
			205.40		-407.24E-06
			208.40		-1.3834E-03
			211.40		-2.5791E-03
			214.40		-2.0732E-03
			217.40		-1.1997E-03
			220.40		-1.1405E-03
			223.40		-1.4784E-03
			226.40		-2.1609E-03
			229.40		-2.2092E-03
			232.40		-2.0132E-03
			235.40		-3.2565E-03
			238.40		-4.1453E-03
			241.40		-3.8623E-03
			244.40		-3.0443E-03
			247.40		-2.4465E-03
			250.40		-3.2633E-03
			253.40		-4.0289E-03
			256.40		-3.4524E-03
			259.40		-2.8482E-03
			262.40		-3.6982E-03
			265.40		-4.2402E-03
			268.40		-3.1553E-03
			271.40		-2.8420E-03
			274.40		-4.3686E-03
			277.40		-5.1185E-03
			280.40		-4.4852E-03
			283.40		-3.9058E-03
			286.40		-4.1409E-03
			289.40		-4.7620E-03
			292.40		-3.6305E-03
			295.40		-634.29E-06
		END_DATA
	END_SCAN  4
END_SCAN_DATA
