BEGIN_SCAN_DATA
	FORMAT=CC-Export V1.9
	FILE_CREATION_DATE=13-Jul-2020 11:18:51
	LAST_MODIFIED=13-Jul-2020 11:18:51
	BEGIN_SCAN   1
		PROGRAM=BistroMath.exe v4.00
		COMMENT=Varian
		MEAS_DATE=09-Sep-2011 00:00:00
		LINAC=Varian
		MODALITY=X
		ISOCENTER=1000.0
		INPLANE_AXIS=Y
		CROSSPLANE_AXIS=X
		DEPTH_AXIS=Z
		INPLANE_AXIS_DIR=TARGET_GUN
		CROSSPLANE_AXIS_DIR=RIGHT_LEFT
		DEPTH_AXIS_DIR=DOWN_UP
		ENERGY=6.00
		NOMINAL_DMAX=15.00
		SSD=1000.00
		SCD=380.00
		BLOCK=0
		WEDGE_ANGLE=0.00
		FIELD_INPLANE=400.00
		FIELD_CROSSPLANE=400.00
		FIELD_TYPE=RECTANGULAR
		GANTRY=0.00
		GANTRY_UPRIGHT_POSITION=0.00
		GANTRY_ROTATION=CW
		COLL_ANGLE=0.00
		COLL_OFFSET_INPLANE=0.00
		COLL_OFFSET_CROSSPLANE=0.00
		SCAN_CURVETYPE=INPLANE_PROFILE
		SCAN_DEPTH=300.00
		SCAN_OFFAXIS_INPLANE=0.00
		SCAN_OFFAXIS_CROSSPLANE=0.00
		SCAN_ANGLE=45.00
		SCAN_DIAGONAL=SECOND_DIAGONAL
		SCAN_DIRECTION=NEGATIVE
		SCAN_COLOR=0
		MEAS_MEDIUM=water
		MEAS_TIME=0.00
		MEAS_UNIT=Relative Dose
		BEGIN_DATA
			437.70		4.9000E+000	10.000E+00
			436.99		4.9000E+000	10.000E+00
			436.14		4.9000E+000	10.000E+00
			435.01		5.0000E+000	10.000E+00
			434.02		5.0000E+000	10.000E+00
			433.03		5.1000E+000	10.000E+00
			432.04		5.1000E+000	10.000E+00
			431.19		5.1000E+000	10.000E+00
			430.35		5.2000E+000	10.000E+00
			429.36		5.2000E+000	10.000E+00
			428.37		5.2000E+000	10.000E+00
			427.52		5.2000E+000	10.000E+00
			426.53		5.3000E+000	10.000E+00
			425.68		5.3000E+000	10.000E+00
			424.83		5.3000E+000	10.000E+00
			423.84		5.4000E+000	10.000E+00
			422.85		5.4000E+000	10.000E+00
			421.86		5.5000E+000	10.000E+00
			420.87		5.5000E+000	10.000E+00
			420.16		5.5000E+000	10.000E+00
			419.31		5.6000E+000	10.000E+00
			418.61		5.6000E+000	10.000E+00
			417.76		5.6000E+000	10.000E+00
			416.77		5.7000E+000	10.000E+00
			415.78		5.7000E+000	10.000E+00
			414.79		5.8000E+000	10.000E+00
			413.80		5.8000E+000	10.000E+00
			412.95		5.8000E+000	10.000E+00
			412.24		5.9000E+000	10.000E+00
			411.54		5.9000E+000	10.000E+00
			410.69		5.9000E+000	10.000E+00
			409.70		6.0000E+000	10.000E+00
			408.57		6.0000E+000	10.000E+00
			407.86		6.0000E+000	10.000E+00
			407.29		6.1000E+000	10.000E+00
			406.59		6.1000E+000	10.000E+00
			405.88		6.1000E+000	10.000E+00
			405.03		6.2000E+000	10.000E+00
			404.32		6.2000E+000	10.000E+00
			403.33		6.3000E+000	10.000E+00
			402.63		6.3000E+000	10.000E+00
			401.92		6.3000E+000	10.000E+00
			401.07		6.4000E+000	10.000E+00
			400.36		6.4000E+000	10.000E+00
			399.80		6.4000E+000	10.000E+00
			399.09		6.5000E+000	10.000E+00
			398.10		6.5000E+000	10.000E+00
			397.39		6.6000E+000	10.000E+00
			396.40		6.6000E+000	10.000E+00
			395.56		6.7000E+000	10.000E+00
			394.71		6.7000E+000	10.000E+00
			393.86		6.8000E+000	10.000E+00
			393.01		6.9000E+000	10.000E+00
			392.16		6.9000E+000	10.000E+00
			391.17		7.0000E+000	10.000E+00
			390.46		7.0000E+000	10.000E+00
			389.76		7.0000E+000	10.000E+00
			388.91		7.1000E+000	10.000E+00
			388.20		7.1000E+000	10.000E+00
			387.49		7.2000E+000	10.000E+00
			386.65		7.2000E+000	10.000E+00
			385.80		7.3000E+000	10.000E+00
			384.81		7.4000E+000	10.000E+00
			383.82		7.4000E+000	10.000E+00
			382.97		7.5000E+000	10.000E+00
			382.12		7.5000E+000	10.000E+00
			381.41		7.6000E+000	10.000E+00
			380.42		7.7000E+000	10.000E+00
			379.43		7.8000E+000	10.000E+00
			378.58		7.8000E+000	10.000E+00
			377.45		7.9000E+000	10.000E+00
			376.46		8.0000E+000	10.000E+00
			375.62		8.1000E+000	10.000E+00
			374.77		8.1000E+000	10.000E+00
			373.78		8.2000E+000	10.000E+00
			372.93		8.3000E+000	10.000E+00
			372.08		8.4000E+000	10.000E+00
			371.23		8.4000E+000	10.000E+00
			370.24		8.5000E+000	10.000E+00
			369.25		8.6000E+000	10.000E+00
			368.26		8.7000E+000	10.000E+00
			367.13		8.8000E+000	10.000E+00
			366.14		8.9000E+000	10.000E+00
			365.15		9.0000E+000	10.000E+00
			364.16		9.1000E+000	10.000E+00
			363.17		9.2000E+000	10.000E+00
			362.04		9.4000E+000	10.000E+00
			361.19		9.5000E+000	10.000E+00
			360.48		9.5000E+000	10.000E+00
			359.49		9.6000E+000	10.000E+00
			358.50		9.7000E+000	10.000E+00
			357.37		9.9000E+000	10.000E+00
			356.38		1.0000E+001	10.000E+00
			355.39		1.0100E+001	10.000E+00
			354.40		1.0300E+001	10.000E+00
			353.41		1.0400E+001	10.000E+00
			352.42		1.0500E+001	10.000E+00
			351.57		1.0600E+001	10.000E+00
			350.58		1.0700E+001	10.000E+00
			349.59		1.0900E+001	10.000E+00
			348.60		1.1000E+001	10.000E+00
			347.47		1.1100E+001	10.000E+00
			346.62		1.1300E+001	10.000E+00
			345.63		1.1500E+001	10.000E+00
			344.64		1.1600E+001	10.000E+00
			343.65		1.1800E+001	10.000E+00
			342.95		1.1900E+001	10.000E+00
			342.24		1.2000E+001	10.000E+00
			341.53		1.2200E+001	10.000E+00
			340.83		1.2300E+001	10.000E+00
			339.98		1.2500E+001	10.000E+00
			338.99		1.2800E+001	10.000E+00
			338.00		1.3100E+001	10.000E+00
			337.01		1.3400E+001	10.000E+00
			335.88		1.3900E+001	10.000E+00
			334.89		1.4400E+001	10.000E+00
			333.90		1.5000E+001	10.000E+00
			332.91		1.5700E+001	10.000E+00
			331.92		1.6600E+001	10.000E+00
			330.78		1.7700E+001	10.000E+00
			329.94		1.8900E+001	10.000E+00
			329.23		1.9900E+001	10.000E+00
			328.38		2.1200E+001	10.000E+00
			327.53		2.2700E+001	10.000E+00
			326.54		2.4600E+001	10.000E+00
			325.55		2.6700E+001	10.000E+00
			324.56		2.8800E+001	10.000E+00
			323.57		3.0900E+001	10.000E+00
			322.58		3.2600E+001	10.000E+00
			321.59		3.4100E+001	10.000E+00
			320.46		3.5300E+001	10.000E+00
			319.47		3.6300E+001	10.000E+00
			318.48		3.6900E+001	10.000E+00
			317.63		3.7300E+001	10.000E+00
			316.64		3.7700E+001	10.000E+00
			315.65		3.8000E+001	10.000E+00
			314.80		3.8300E+001	10.000E+00
			314.10		3.8500E+001	10.000E+00
			313.25		3.8800E+001	10.000E+00
			312.40		3.9000E+001	10.000E+00
			311.69		3.9200E+001	10.000E+00
			310.99		3.9400E+001	10.000E+00
			310.28		3.9600E+001	10.000E+00
			309.57		3.9700E+001	10.000E+00
			309.01		3.9900E+001	10.000E+00
			308.30		4.0000E+001	10.000E+00
			307.59		4.0200E+001	10.000E+00
			306.88		4.0400E+001	10.000E+00
			306.18		4.0500E+001	10.000E+00
			305.33		4.0800E+001	10.000E+00
			304.48		4.0900E+001	10.000E+00
			303.63		4.1100E+001	10.000E+00
			302.92		4.1300E+001	10.000E+00
			302.22		4.1400E+001	10.000E+00
			301.37		4.1600E+001	10.000E+00
			300.66		4.1800E+001	10.000E+00
			299.95		4.1900E+001	10.000E+00
			299.39		4.2100E+001	10.000E+00
			298.54		4.2300E+001	10.000E+00
			297.69		4.2400E+001	10.000E+00
			296.98		4.2600E+001	10.000E+00
			296.14		4.2900E+001	10.000E+00
			295.29		4.3100E+001	10.000E+00
			294.58		4.3200E+001	10.000E+00
			293.73		4.3400E+001	10.000E+00
			292.74		4.3600E+001	10.000E+00
			291.75		4.3800E+001	10.000E+00
			290.76		4.4100E+001	10.000E+00
			289.77		4.4300E+001	10.000E+00
			288.78		4.4400E+001	10.000E+00
			287.79		4.4700E+001	10.000E+00
			286.94		4.4800E+001	10.000E+00
			286.10		4.5100E+001	10.000E+00
			284.96		4.5300E+001	10.000E+00
			283.97		4.5600E+001	10.000E+00
			282.98		4.5800E+001	10.000E+00
			282.28		4.5900E+001	10.000E+00
			281.57		4.6000E+001	10.000E+00
			280.86		4.6200E+001	10.000E+00
			280.01		4.6300E+001	10.000E+00
			279.31		4.6500E+001	10.000E+00
			278.46		4.6700E+001	10.000E+00
			277.33		4.7000E+001	10.000E+00
			276.34		4.7100E+001	10.000E+00
			275.35		4.7300E+001	10.000E+00
			274.36		4.7500E+001	10.000E+00
			273.23		4.7800E+001	10.000E+00
			272.24		4.8000E+001	10.000E+00
			271.25		4.8200E+001	10.000E+00
			270.40		4.8400E+001	10.000E+00
			269.41		4.8600E+001	10.000E+00
			268.70		4.8700E+001	10.000E+00
			267.85		4.8900E+001	10.000E+00
			266.86		4.9200E+001	10.000E+00
			266.01		4.9300E+001	10.000E+00
			265.31		4.9500E+001	10.000E+00
			264.60		4.9600E+001	10.000E+00
			263.61		4.9900E+001	10.000E+00
			262.48		5.0100E+001	10.000E+00
			261.49		5.0200E+001	10.000E+00
			260.50		5.0400E+001	10.000E+00
			259.51		5.0700E+001	10.000E+00
			258.52		5.0900E+001	10.000E+00
			257.53		5.1100E+001	10.000E+00
			256.54		5.1300E+001	10.000E+00
			255.55		5.1500E+001	10.000E+00
			254.56		5.1700E+001	10.000E+00
			253.57		5.1900E+001	10.000E+00
			252.72		5.2100E+001	10.000E+00
			252.01		5.2300E+001	10.000E+00
			251.16		5.2400E+001	10.000E+00
			250.32		5.2500E+001	10.000E+00
			249.61		5.2700E+001	10.000E+00
			248.76		5.2900E+001	10.000E+00
			248.05		5.3000E+001	10.000E+00
			247.35		5.3300E+001	10.000E+00
			246.50		5.3300E+001	10.000E+00
			245.65		5.3400E+001	10.000E+00
			244.94		5.3700E+001	10.000E+00
			244.23		5.3800E+001	10.000E+00
			243.39		5.4000E+001	10.000E+00
			242.40		5.4300E+001	10.000E+00
			241.41		5.4400E+001	10.000E+00
			240.42		5.4700E+001	10.000E+00
			239.43		5.4900E+001	10.000E+00
			238.29		5.5100E+001	10.000E+00
			237.31		5.5300E+001	10.000E+00
			236.46		5.5400E+001	10.000E+00
			235.47		5.5700E+001	10.000E+00
			234.62		5.5800E+001	10.000E+00
			233.63		5.6000E+001	10.000E+00
			232.64		5.6200E+001	10.000E+00
			231.79		5.6400E+001	10.000E+00
			231.08		5.6600E+001	10.000E+00
			230.23		5.6700E+001	10.000E+00
			229.39		5.6900E+001	10.000E+00
			228.54		5.7000E+001	10.000E+00
			227.69		5.7300E+001	10.000E+00
			226.98		5.7400E+001	10.000E+00
			226.27		5.7600E+001	10.000E+00
			225.28		5.7800E+001	10.000E+00
			224.58		5.7900E+001	10.000E+00
			223.59		5.8100E+001	10.000E+00
			222.60		5.8400E+001	10.000E+00
			221.61		5.8600E+001	10.000E+00
			220.48		5.8800E+001	10.000E+00
			219.49		5.8900E+001	10.000E+00
			218.64		5.9100E+001	10.000E+00
			217.79		5.9300E+001	10.000E+00
			216.80		5.9500E+001	10.000E+00
			215.81		5.9800E+001	10.000E+00
			214.82		6.0000E+001	10.000E+00
			213.69		6.0100E+001	10.000E+00
			212.84		6.0400E+001	10.000E+00
			211.85		6.0600E+001	10.000E+00
			211.00		6.0800E+001	10.000E+00
			210.01		6.1000E+001	10.000E+00
			209.16		6.1000E+001	10.000E+00
			208.46		6.1300E+001	10.000E+00
			207.61		6.1500E+001	10.000E+00
			206.62		6.1700E+001	10.000E+00
			205.77		6.1900E+001	10.000E+00
			204.92		6.2000E+001	10.000E+00
			204.07		6.2200E+001	10.000E+00
			203.08		6.2500E+001	10.000E+00
			202.23		6.2600E+001	10.000E+00
			201.38		6.2700E+001	10.000E+00
			200.54		6.2900E+001	10.000E+00
			199.69		6.3100E+001	10.000E+00
			198.84		6.3200E+001	10.000E+00
			197.85		6.3400E+001	10.000E+00
			197.00		6.3600E+001	10.000E+00
			196.29		6.3800E+001	10.000E+00
			195.59		6.4000E+001	10.000E+00
			194.60		6.4200E+001	10.000E+00
			193.61		6.4400E+001	10.000E+00
			192.62		6.4600E+001	10.000E+00
			191.63		6.4800E+001	10.000E+00
			190.64		6.5000E+001	10.000E+00
			189.65		6.5200E+001	10.000E+00
			188.80		6.5500E+001	10.000E+00
			187.67		6.5700E+001	10.000E+00
			186.82		6.5800E+001	10.000E+00
			185.97		6.6000E+001	10.000E+00
			185.40		6.6200E+001	10.000E+00
			184.70		6.6300E+001	10.000E+00
			183.85		6.6500E+001	10.000E+00
			183.14		6.6700E+001	10.000E+00
			182.15		6.6800E+001	10.000E+00
			181.44		6.7000E+001	10.000E+00
			180.74		6.7200E+001	10.000E+00
			180.03		6.7300E+001	10.000E+00
			179.18		6.7500E+001	10.000E+00
			178.47		6.7600E+001	10.000E+00
			177.63		6.7800E+001	10.000E+00
			176.78		6.8000E+001	10.000E+00
			175.93		6.8100E+001	10.000E+00
			175.08		6.8400E+001	10.000E+00
			174.37		6.8600E+001	10.000E+00
			173.38		6.8800E+001	10.000E+00
			172.39		6.9000E+001	10.000E+00
			171.40		6.9200E+001	10.000E+00
			170.70		6.9300E+001	10.000E+00
			169.71		6.9500E+001	10.000E+00
			169.00		6.9600E+001	10.000E+00
			168.29		6.9800E+001	10.000E+00
			167.58		7.0000E+001	10.000E+00
			166.88		7.0000E+001	10.000E+00
			166.03		7.0400E+001	10.000E+00
			164.90		7.0500E+001	10.000E+00
			164.05		7.0800E+001	10.000E+00
			163.34		7.0900E+001	10.000E+00
			162.49		7.1100E+001	10.000E+00
			161.79		7.1100E+001	10.000E+00
			161.08		7.1300E+001	10.000E+00
			160.23		7.1500E+001	10.000E+00
			159.52		7.1700E+001	10.000E+00
			158.82		7.1900E+001	10.000E+00
			158.11		7.2000E+001	10.000E+00
			157.12		7.2200E+001	10.000E+00
			156.41		7.2300E+001	10.000E+00
			155.56		7.2500E+001	10.000E+00
			154.86		7.2800E+001	10.000E+00
			154.01		7.2900E+001	10.000E+00
			153.30		7.3100E+001	10.000E+00
			152.31		7.3300E+001	10.000E+00
			151.46		7.3500E+001	10.000E+00
			150.61		7.3600E+001	10.000E+00
			149.62		7.3800E+001	10.000E+00
			148.78		7.4100E+001	10.000E+00
			147.79		7.4300E+001	10.000E+00
			146.65		7.4500E+001	10.000E+00
			145.81		7.4700E+001	10.000E+00
			145.10		7.4900E+001	10.000E+00
			144.53		7.5000E+001	10.000E+00
			143.54		7.5100E+001	10.000E+00
			142.84		7.5300E+001	10.000E+00
			142.13		7.5500E+001	10.000E+00
			141.14		7.5700E+001	10.000E+00
			140.01		7.6000E+001	10.000E+00
			139.16		7.6100E+001	10.000E+00
			138.31		7.6300E+001	10.000E+00
			137.32		7.6500E+001	10.000E+00
			136.33		7.6700E+001	10.000E+00
			135.34		7.6900E+001	10.000E+00
			134.35		7.7200E+001	10.000E+00
			133.36		7.7400E+001	10.000E+00
			132.23		7.7600E+001	10.000E+00
			131.38		7.7800E+001	10.000E+00
			130.67		7.8000E+001	10.000E+00
			129.97		7.8200E+001	10.000E+00
			129.26		7.8300E+001	10.000E+00
			128.55		7.8500E+001	10.000E+00
			127.84		7.8600E+001	10.000E+00
			127.00		7.8900E+001	10.000E+00
			126.15		7.9100E+001	10.000E+00
			125.30		7.9200E+001	10.000E+00
			124.59		7.9300E+001	10.000E+00
			123.74		7.9500E+001	10.000E+00
			122.75		7.9700E+001	10.000E+00
			121.76		8.0000E+001	10.000E+00
			121.06		8.0100E+001	10.000E+00
			120.21		8.0300E+001	10.000E+00
			119.22		8.0600E+001	10.000E+00
			118.09		8.0800E+001	10.000E+00
			117.24		8.1000E+001	10.000E+00
			116.25		8.1200E+001	10.000E+00
			115.26		8.1400E+001	10.000E+00
			114.27		8.1600E+001	10.000E+00
			113.28		8.1900E+001	10.000E+00
			112.29		8.2000E+001	10.000E+00
			111.30		8.2300E+001	10.000E+00
			110.59		8.2500E+001	10.000E+00
			109.88		8.2600E+001	10.000E+00
			109.18		8.2800E+001	10.000E+00
			108.47		8.2900E+001	10.000E+00
			107.48		8.3100E+001	10.000E+00
			106.77		8.3300E+001	10.000E+00
			105.92		8.3400E+001	10.000E+00
			105.22		8.3600E+001	10.000E+00
			104.37		8.3900E+001	10.000E+00
			103.66		8.3900E+001	10.000E+00
			103.10		8.4100E+001	10.000E+00
			102.39		8.4300E+001	10.000E+00
			101.54		8.4500E+001	10.000E+00
			100.97		8.4600E+001	10.000E+00
			100.27		8.4800E+001	10.000E+00
			99.28		8.5000E+001	10.000E+00
			98.29		8.5200E+001	10.000E+00
			97.30		8.5400E+001	10.000E+00
			96.31		8.5700E+001	10.000E+00
			95.18		8.5900E+001	10.000E+00
			94.19		8.6100E+001	10.000E+00
			93.34		8.6300E+001	10.000E+00
			92.49		8.6500E+001	10.000E+00
			91.50		8.6700E+001	10.000E+00
			90.65		8.6700E+001	10.000E+00
			89.66		8.7000E+001	10.000E+00
			88.67		8.7300E+001	10.000E+00
			87.96		8.7400E+001	10.000E+00
			87.26		8.7500E+001	10.000E+00
			86.55		8.7700E+001	10.000E+00
			85.70		8.7800E+001	10.000E+00
			84.71		8.8000E+001	10.000E+00
			83.86		8.8200E+001	10.000E+00
			83.16		8.8500E+001	10.000E+00
			82.45		8.8700E+001	10.000E+00
			81.74		8.8800E+001	10.000E+00
			80.89		8.9000E+001	10.000E+00
			79.76		8.9200E+001	10.000E+00
			78.77		8.9400E+001	10.000E+00
			77.78		8.9600E+001	10.000E+00
			76.79		8.9800E+001	10.000E+00
			75.80		9.0000E+001	10.000E+00
			74.67		9.0200E+001	10.000E+00
			73.68		9.0400E+001	10.000E+00
			72.69		9.0700E+001	10.000E+00
			71.70		9.0900E+001	10.000E+00
			70.99		9.1100E+001	10.000E+00
			70.00		9.1300E+001	10.000E+00
			69.01		9.1500E+001	10.000E+00
			68.02		9.1600E+001	10.000E+00
			67.32		9.1700E+001	10.000E+00
			66.61		9.1900E+001	10.000E+00
			65.76		9.2000E+001	10.000E+00
			64.91		9.2300E+001	10.000E+00
			64.21		9.2400E+001	10.000E+00
			63.36		9.2600E+001	10.000E+00
			62.79		9.2700E+001	10.000E+00
			62.08		9.2800E+001	10.000E+00
			61.24		9.3000E+001	10.000E+00
			60.53		9.3200E+001	10.000E+00
			59.68		9.3400E+001	10.000E+00
			58.69		9.3500E+001	10.000E+00
			57.84		9.3500E+001	10.000E+00
			57.13		9.3700E+001	10.000E+00
			56.00		9.3900E+001	10.000E+00
			55.01		9.4100E+001	10.000E+00
			54.02		9.4300E+001	10.000E+00
			53.03		9.4500E+001	10.000E+00
			52.18		9.4700E+001	10.000E+00
			51.19		9.4800E+001	10.000E+00
			50.49		9.5100E+001	10.000E+00
			49.50		9.5200E+001	10.000E+00
			48.51		9.5300E+001	10.000E+00
			47.52		9.5600E+001	10.000E+00
			46.53		9.5600E+001	10.000E+00
			45.82		9.5800E+001	10.000E+00
			44.83		9.5900E+001	10.000E+00
			43.84		9.6100E+001	10.000E+00
			42.85		9.6300E+001	10.000E+00
			42.14		9.6400E+001	10.000E+00
			41.15		9.6500E+001	10.000E+00
			40.45		9.6700E+001	10.000E+00
			39.74		9.6700E+001	10.000E+00
			38.89		9.6900E+001	10.000E+00
			37.76		9.7100E+001	10.000E+00
			36.91		9.7200E+001	10.000E+00
			35.92		9.7300E+001	10.000E+00
			34.93		9.7500E+001	10.000E+00
			33.94		9.7600E+001	10.000E+00
			32.95		9.7800E+001	10.000E+00
			32.10		9.7900E+001	10.000E+00
			31.11		9.8000E+001	10.000E+00
			30.12		9.8100E+001	10.000E+00
			29.13		9.8100E+001	10.000E+00
			28.43		9.8300E+001	10.000E+00
			27.72		9.8300E+001	10.000E+00
			27.01		9.8400E+001	10.000E+00
			26.16		9.8400E+001	10.000E+00
			25.31		9.8700E+001	10.000E+00
			24.61		9.8700E+001	10.000E+00
			23.76		9.8800E+001	10.000E+00
			23.05		9.8900E+001	10.000E+00
			22.34		9.9000E+001	10.000E+00
			21.50		9.9000E+001	10.000E+00
			20.51		9.9100E+001	10.000E+00
			19.52		9.9200E+001	10.000E+00
			18.53		9.9200E+001	10.000E+00
			17.54		9.9300E+001	10.000E+00
			16.55		9.9400E+001	10.000E+00
			15.41		9.9500E+001	10.000E+00
			14.42		9.9700E+001	10.000E+00
			13.44		9.9600E+001	10.000E+00
			12.45		9.9600E+001	10.000E+00
			11.46		9.9700E+001	10.000E+00
			10.32		9.9800E+001	10.000E+00
			9.48		9.9700E+001	10.000E+00
			8.77		9.9800E+001	10.000E+00
			7.92		9.9900E+001	10.000E+00
			6.93		1.0000E+002	10.000E+00
			6.08		1.0000E+002	10.000E+00
			5.23		1.0000E+002	10.000E+00
			4.38		1.0000E+002	10.000E+00
			3.39		1.0000E+002	10.000E+00
			2.55		1.0000E+002	10.000E+00
			1.41		9.9900E+001	10.000E+00
			0.42		1.0000E+002	10.000E+00
			-0.14		1.0000E+002	10.000E+00
			-1.70		9.9900E+001	10.000E+00
			-2.69		1.0000E+002	10.000E+00
			-3.54		1.0000E+002	10.000E+00
			-4.53		1.0000E+002	10.000E+00
			-5.37		1.0000E+002	10.000E+00
			-6.22		1.0000E+002	10.000E+00
			-7.21		9.9900E+001	10.000E+00
			-8.06		9.9900E+001	10.000E+00
			-8.91		9.9800E+001	10.000E+00
			-9.62		9.9700E+001	10.000E+00
			-10.61		9.9800E+001	10.000E+00
			-11.60		9.9600E+001	10.000E+00
			-12.59		9.9700E+001	10.000E+00
			-13.58		9.9600E+001	10.000E+00
			-14.71		9.9600E+001	10.000E+00
			-15.70		9.9500E+001	10.000E+00
			-16.69		9.9400E+001	10.000E+00
			-17.68		9.9300E+001	10.000E+00
			-18.67		9.9200E+001	10.000E+00
			-19.80		9.9200E+001	10.000E+00
			-20.79		9.9100E+001	10.000E+00
			-21.64		9.9100E+001	10.000E+00
			-22.49		9.9000E+001	10.000E+00
			-23.19		9.8900E+001	10.000E+00
			-24.04		9.8800E+001	10.000E+00
			-24.75		9.8700E+001	10.000E+00
			-25.46		9.8700E+001	10.000E+00
			-26.30		9.8400E+001	10.000E+00
			-27.15		9.8400E+001	10.000E+00
			-27.86		9.8300E+001	10.000E+00
			-28.57		9.8300E+001	10.000E+00
			-29.27		9.8100E+001	10.000E+00
			-30.26		9.8100E+001	10.000E+00
			-31.25		9.8000E+001	10.000E+00
			-32.24		9.7900E+001	10.000E+00
			-33.09		9.7700E+001	10.000E+00
			-34.08		9.7600E+001	10.000E+00
			-35.21		9.7400E+001	10.000E+00
			-36.20		9.7300E+001	10.000E+00
			-37.19		9.7200E+001	10.000E+00
			-38.04		9.7000E+001	10.000E+00
			-39.03		9.6800E+001	10.000E+00
			-39.88		9.6700E+001	10.000E+00
			-40.59		9.6600E+001	10.000E+00
			-41.44		9.6400E+001	10.000E+00
			-42.28		9.6400E+001	10.000E+00
			-42.99		9.6300E+001	10.000E+00
			-43.98		9.6100E+001	10.000E+00
			-44.97		9.5900E+001	10.000E+00
			-45.96		9.5800E+001	10.000E+00
			-46.67		9.5600E+001	10.000E+00
			-47.66		9.5500E+001	10.000E+00
			-48.65		9.5300E+001	10.000E+00
			-49.64		9.5100E+001	10.000E+00
			-50.63		9.5100E+001	10.000E+00
			-51.34		9.4800E+001	10.000E+00
			-52.33		9.4700E+001	10.000E+00
			-53.17		9.4500E+001	10.000E+00
			-54.16		9.4300E+001	10.000E+00
			-55.30		9.4100E+001	10.000E+00
			-56.29		9.3900E+001	10.000E+00
			-57.28		9.3700E+001	10.000E+00
			-57.98		9.3500E+001	10.000E+00
			-58.83		9.3500E+001	10.000E+00
			-59.82		9.3400E+001	10.000E+00
			-60.67		9.3200E+001	10.000E+00
			-61.38		9.3000E+001	10.000E+00
			-62.08		9.2700E+001	10.000E+00
			-62.93		9.2600E+001	10.000E+00
			-63.50		9.2500E+001	10.000E+00
			-64.21		9.2400E+001	10.000E+00
			-65.05		9.2200E+001	10.000E+00
			-65.90		9.2000E+001	10.000E+00
			-66.75		9.1900E+001	10.000E+00
			-67.46		9.1700E+001	10.000E+00
			-68.17		9.1600E+001	10.000E+00
			-69.16		9.1400E+001	10.000E+00
			-70.29		9.1300E+001	10.000E+00
			-71.13		9.1000E+001	10.000E+00
			-71.84		9.0900E+001	10.000E+00
			-72.83		9.0600E+001	10.000E+00
			-73.82		9.0300E+001	10.000E+00
			-74.95		9.0100E+001	10.000E+00
			-75.94		9.0000E+001	10.000E+00
			-76.93		8.9700E+001	10.000E+00
			-77.92		8.9600E+001	10.000E+00
			-79.05		8.9300E+001	10.000E+00
			-80.04		8.9100E+001	10.000E+00
			-81.03		8.9000E+001	10.000E+00
			-81.88		8.8800E+001	10.000E+00
			-82.59		8.8700E+001	10.000E+00
			-83.30		8.8400E+001	10.000E+00
			-84.00		8.8200E+001	10.000E+00
			-84.85		8.8000E+001	10.000E+00
			-85.84		8.7800E+001	10.000E+00
			-86.69		8.7600E+001	10.000E+00
			-87.40		8.7500E+001	10.000E+00
			-88.11		8.7400E+001	10.000E+00
			-88.81		8.7200E+001	10.000E+00
			-89.94		8.7000E+001	10.000E+00
			-90.79		8.6700E+001	10.000E+00
			-91.78		8.6700E+001	10.000E+00
			-92.77		8.6400E+001	10.000E+00
			-93.48		8.6300E+001	10.000E+00
			-94.47		8.6100E+001	10.000E+00
			-95.46		8.5800E+001	10.000E+00
			-96.45		8.5600E+001	10.000E+00
			-97.44		8.5400E+001	10.000E+00
			-98.43		8.5200E+001	10.000E+00
			-99.42		8.4900E+001	10.000E+00
			-100.41		8.4700E+001	10.000E+00
			-101.12		8.4600E+001	10.000E+00
			-101.82		8.4500E+001	10.000E+00
			-102.53		8.4300E+001	10.000E+00
			-103.24		8.4000E+001	10.000E+00
			-103.80		8.3900E+001	10.000E+00
			-104.51		8.3900E+001	10.000E+00
			-105.36		8.3600E+001	10.000E+00
			-106.07		8.3400E+001	10.000E+00
			-106.91		8.3300E+001	10.000E+00
			-107.76		8.3000E+001	10.000E+00
			-108.61		8.2900E+001	10.000E+00
			-109.32		8.2700E+001	10.000E+00
			-110.03		8.2600E+001	10.000E+00
			-110.73		8.2400E+001	10.000E+00
			-111.44		8.2300E+001	10.000E+00
			-112.43		8.2000E+001	10.000E+00
			-113.42		8.1900E+001	10.000E+00
			-114.41		8.1500E+001	10.000E+00
			-115.54		8.1400E+001	10.000E+00
			-116.53		8.1100E+001	10.000E+00
			-117.38		8.0900E+001	10.000E+00
			-118.37		8.0700E+001	10.000E+00
			-119.36		8.0500E+001	10.000E+00
			-120.35		8.0300E+001	10.000E+00
			-121.20		8.0100E+001	10.000E+00
			-122.05		7.9900E+001	10.000E+00
			-123.04		7.9700E+001	10.000E+00
			-124.03		7.9500E+001	10.000E+00
			-124.59		7.9200E+001	10.000E+00
			-125.44		7.9100E+001	10.000E+00
			-126.29		7.9000E+001	10.000E+00
			-127.14		7.8800E+001	10.000E+00
			-127.99		7.8600E+001	10.000E+00
			-128.69		7.8400E+001	10.000E+00
			-129.40		7.8300E+001	10.000E+00
			-130.11		7.8100E+001	10.000E+00
			-130.81		7.8000E+001	10.000E+00
			-131.52		7.7800E+001	10.000E+00
			-132.51		7.7600E+001	10.000E+00
			-133.50		7.7300E+001	10.000E+00
			-134.49		7.7200E+001	10.000E+00
			-135.48		7.6900E+001	10.000E+00
			-136.61		7.6700E+001	10.000E+00
			-137.60		7.6500E+001	10.000E+00
			-138.45		7.6300E+001	10.000E+00
			-139.44		7.6000E+001	10.000E+00
			-140.29		7.6000E+001	10.000E+00
			-141.28		7.5700E+001	10.000E+00
			-142.27		7.5400E+001	10.000E+00
			-143.12		7.5200E+001	10.000E+00
			-143.68		7.5000E+001	10.000E+00
			-144.67		7.5000E+001	10.000E+00
			-145.24		7.4800E+001	10.000E+00
			-145.95		7.4600E+001	10.000E+00
			-146.94		7.4400E+001	10.000E+00
			-147.93		7.4300E+001	10.000E+00
			-148.92		7.4000E+001	10.000E+00
			-149.77		7.3800E+001	10.000E+00
			-150.76		7.3600E+001	10.000E+00
			-151.60		7.3400E+001	10.000E+00
			-152.45		7.3300E+001	10.000E+00
			-153.44		7.3000E+001	10.000E+00
			-154.15		7.2900E+001	10.000E+00
			-155.00		7.2700E+001	10.000E+00
			-155.70		7.2400E+001	10.000E+00
			-156.55		7.2300E+001	10.000E+00
			-157.26		7.2200E+001	10.000E+00
			-158.25		7.2000E+001	10.000E+00
			-158.96		7.1900E+001	10.000E+00
			-159.66		7.1700E+001	10.000E+00
			-160.37		7.1500E+001	10.000E+00
			-161.22		7.1300E+001	10.000E+00
			-161.93		7.1100E+001	10.000E+00
			-162.78		7.1100E+001	10.000E+00
			-163.48		7.0900E+001	10.000E+00
			-164.19		7.0700E+001	10.000E+00
			-165.18		7.0500E+001	10.000E+00
			-166.17		7.0300E+001	10.000E+00
			-167.02		7.0000E+001	10.000E+00
			-167.73		6.9900E+001	10.000E+00
			-168.43		6.9800E+001	10.000E+00
			-169.14		6.9600E+001	10.000E+00
			-169.85		6.9400E+001	10.000E+00
			-170.84		6.9300E+001	10.000E+00
			-171.54		6.9200E+001	10.000E+00
			-172.53		6.8900E+001	10.000E+00
			-173.52		6.8700E+001	10.000E+00
			-174.51		6.8500E+001	10.000E+00
			-175.22		6.8300E+001	10.000E+00
			-176.07		6.8100E+001	10.000E+00
			-176.92		6.7900E+001	10.000E+00
			-177.91		6.7700E+001	10.000E+00
			-178.62		6.7600E+001	10.000E+00
			-179.32		6.7500E+001	10.000E+00
			-180.17		6.7300E+001	10.000E+00
			-180.88		6.7100E+001	10.000E+00
			-181.59		6.6900E+001	10.000E+00
			-182.43		6.6800E+001	10.000E+00
			-183.28		6.6700E+001	10.000E+00
			-184.13		6.6400E+001	10.000E+00
			-184.84		6.6300E+001	10.000E+00
			-185.40		6.6100E+001	10.000E+00
			-186.11		6.6000E+001	10.000E+00
			-186.96		6.5800E+001	10.000E+00
			-187.95		6.5700E+001	10.000E+00
			-188.94		6.5400E+001	10.000E+00
			-189.79		6.5200E+001	10.000E+00
			-190.78		6.5000E+001	10.000E+00
			-191.77		6.4700E+001	10.000E+00
			-192.90		6.4600E+001	10.000E+00
			-193.89		6.4300E+001	10.000E+00
			-194.88		6.4200E+001	10.000E+00
			-195.73		6.3900E+001	10.000E+00
			-196.43		6.3800E+001	10.000E+00
			-197.14		6.3600E+001	10.000E+00
			-198.13		6.3400E+001	10.000E+00
			-198.98		6.3200E+001	10.000E+00
			-199.83		6.3100E+001	10.000E+00
			-200.82		6.2800E+001	10.000E+00
			-201.53		6.2700E+001	10.000E+00
			-202.37		6.2600E+001	10.000E+00
			-203.36		6.2500E+001	10.000E+00
			-204.21		6.2200E+001	10.000E+00
			-205.06		6.2000E+001	10.000E+00
			-205.91		6.1900E+001	10.000E+00
			-206.76		6.1600E+001	10.000E+00
			-207.75		6.1500E+001	10.000E+00
			-208.60		6.1200E+001	10.000E+00
			-209.30		6.1000E+001	10.000E+00
			-210.29		6.0900E+001	10.000E+00
			-211.14		6.0800E+001	10.000E+00
			-212.13		6.0600E+001	10.000E+00
			-213.12		6.0300E+001	10.000E+00
			-213.97		6.0100E+001	10.000E+00
			-214.96		6.0000E+001	10.000E+00
			-215.95		5.9800E+001	10.000E+00
			-217.08		5.9500E+001	10.000E+00
			-217.93		5.9300E+001	10.000E+00
			-218.92		5.9100E+001	10.000E+00
			-219.77		5.8900E+001	10.000E+00
			-220.76		5.8700E+001	10.000E+00
			-221.75		5.8600E+001	10.000E+00
			-222.74		5.8300E+001	10.000E+00
			-223.73		5.8100E+001	10.000E+00
			-224.72		5.7900E+001	10.000E+00
			-225.43		5.7800E+001	10.000E+00
			-226.42		5.7500E+001	10.000E+00
			-227.12		5.7400E+001	10.000E+00
			-227.83		5.7200E+001	10.000E+00
			-228.68		5.7000E+001	10.000E+00
			-229.53		5.6900E+001	10.000E+00
			-230.38		5.6700E+001	10.000E+00
			-231.22		5.6600E+001	10.000E+00
			-231.93		5.6400E+001	10.000E+00
			-232.92		5.6200E+001	10.000E+00
			-233.91		5.5900E+001	10.000E+00
			-234.90		5.5800E+001	10.000E+00
			-235.75		5.5600E+001	10.000E+00
			-236.60		5.5400E+001	10.000E+00
			-237.59		5.5200E+001	10.000E+00
			-238.58		5.5000E+001	10.000E+00
			-239.57		5.4800E+001	10.000E+00
			-240.56		5.4700E+001	10.000E+00
			-241.55		5.4400E+001	10.000E+00
			-242.54		5.4200E+001	10.000E+00
			-243.53		5.4000E+001	10.000E+00
			-244.38		5.3800E+001	10.000E+00
			-245.08		5.3600E+001	10.000E+00
			-245.79		5.3400E+001	10.000E+00
			-246.64		5.3300E+001	10.000E+00
			-247.49		5.3200E+001	10.000E+00
			-248.19		5.3000E+001	10.000E+00
			-249.04		5.2800E+001	10.000E+00
			-249.75		5.2700E+001	10.000E+00
			-250.60		5.2500E+001	10.000E+00
			-251.31		5.2400E+001	10.000E+00
			-252.15		5.2300E+001	10.000E+00
			-252.86		5.2100E+001	10.000E+00
			-253.71		5.1900E+001	10.000E+00
			-254.70		5.1700E+001	10.000E+00
			-255.83		5.1500E+001	10.000E+00
			-256.82		5.1300E+001	10.000E+00
			-257.67		5.1100E+001	10.000E+00
			-258.66		5.0900E+001	10.000E+00
			-259.65		5.0700E+001	10.000E+00
			-260.64		5.0400E+001	10.000E+00
			-261.77		5.0200E+001	10.000E+00
			-262.76		5.0000E+001	10.000E+00
			-263.75		4.9800E+001	10.000E+00
			-264.74		4.9600E+001	10.000E+00
			-265.45		4.9500E+001	10.000E+00
			-266.15		4.9300E+001	10.000E+00
			-267.00		4.9100E+001	10.000E+00
			-267.99		4.8800E+001	10.000E+00
			-268.84		4.8700E+001	10.000E+00
			-269.69		4.8500E+001	10.000E+00
			-270.54		4.8300E+001	10.000E+00
			-271.39		4.8200E+001	10.000E+00
			-272.52		4.7900E+001	10.000E+00
			-273.51		4.7700E+001	10.000E+00
			-274.50		4.7500E+001	10.000E+00
			-275.49		4.7300E+001	10.000E+00
			-276.62		4.7100E+001	10.000E+00
			-277.61		4.6900E+001	10.000E+00
			-278.60		4.6600E+001	10.000E+00
			-279.59		4.6500E+001	10.000E+00
			-280.16		4.6300E+001	10.000E+00
			-281.00		4.6200E+001	10.000E+00
			-281.71		4.6000E+001	10.000E+00
			-282.42		4.5900E+001	10.000E+00
			-283.27		4.5700E+001	10.000E+00
			-284.26		4.5500E+001	10.000E+00
			-285.25		4.5200E+001	10.000E+00
			-286.24		4.5000E+001	10.000E+00
			-287.09		4.4800E+001	10.000E+00
			-287.93		4.4700E+001	10.000E+00
			-288.92		4.4400E+001	10.000E+00
			-289.91		4.4200E+001	10.000E+00
			-290.90		4.4000E+001	10.000E+00
			-292.04		4.3700E+001	10.000E+00
			-293.03		4.3500E+001	10.000E+00
			-294.01		4.3300E+001	10.000E+00
			-294.72		4.3100E+001	10.000E+00
			-295.43		4.3000E+001	10.000E+00
			-296.28		4.2800E+001	10.000E+00
			-297.13		4.2500E+001	10.000E+00
			-297.97		4.2400E+001	10.000E+00
			-298.68		4.2200E+001	10.000E+00
			-299.53		4.2100E+001	10.000E+00
			-300.10		4.1900E+001	10.000E+00
			-300.80		4.1700E+001	10.000E+00
			-301.51		4.1600E+001	10.000E+00
			-302.36		4.1400E+001	10.000E+00
			-303.07		4.1200E+001	10.000E+00
			-303.77		4.1100E+001	10.000E+00
			-304.62		4.0900E+001	10.000E+00
			-305.47		4.0700E+001	10.000E+00
			-306.32		4.0500E+001	10.000E+00
			-307.03		4.0300E+001	10.000E+00
			-307.73		4.0200E+001	10.000E+00
