BEGIN_SCAN_DATA
	FORMAT=CC-Export V1.9                  
	FILE_CREATION_DATE=10-Jul-2012 15:55:51
	LAST_MODIFIED=10-Jul-2012 15:55:51
	BEGIN_SCAN  1
		TASK_NAME=tba PDD Profiles
		PROGRAM=tbaScan
		COMMENT=profiel 14 t/m 18
		MEAS_DATE=21-Mar-2008 09:55:00
		LINAC=A5 - L081
		MODALITY=X
		ISOCENTER=1000.00
		INPLANE_AXIS=X
		CROSSPLANE_AXIS=Y
		DEPTH_AXIS=Depth
		INPLANE_AXIS_DIR=GUN_TARGET
		CROSSPLANE_AXIS_DIR=RIGHT_LEFT
		DEPTH_AXIS_DIR=UP_DOWN
		ENERGY=6.00
		NOMINAL_DMAX=15.00
		SSD=950.00
		SCD=450.00
		WEDGE_ANGLE=0.00
		FIELD_INPLANE=100.00
		FIELD_CROSSPLANE=100.00
		FIELD_TYPE=RECTANGULAR
		GANTRY=0.00
		GANTRY_UPRIGHT_POSITION=0
		GANTRY_ROTATION=CW
		COLL_ANGLE=90.00
		COLL_OFFSET_INPLANE=0.00
		COLL_OFFSET_CROSSPLANE=0.00
		SCAN_DEVICE=MP3
		SCAN_DEVICE_SETUP=BARA_GUN_TARGET
		ELECTROMETER=TANDEM
		RANGE_FIELD=AUTO
		RANGE_REFERENCE=AUTO
		DETECTOR=THIMBLE_CHAMBER
		DETECTOR_SUBCODE=SEMIFLEX
		DETECTOR_RADIUS=2.75
		DETECTOR_NAME=PTW 31002 Semiflex
		DETECTOR_SN=0573
		DETECTOR_CALIBRATION=263000000.00
		DETECTOR_IS_CALIBRATED=1
		DETECTOR_REFERENCE_CALIBRATION=300000000.00
		REF_FIELD_DEPTH=50.00
		REF_FIELD_DEFINED=ISOCENTER
		REF_FIELD_INPLANE=100.00
		REF_FIELD_CROSSPLANE=100.00
		REF_SCAN_POSITIONS=0.00;1.00;2.00;3.00;4.00;5.00;6.00;7.00;8.00;9.00;10.00;11.00;12.00;13.00;14.00;15.00;16.00;17.00;18.00;19.00;20.00;21.00;22.00;23.00;24.00;25.00;26.00;27.00;28.00;29.00;30.00;31.00;32.00;33.00;34.00;35.00;36.00;37.00;38.00;39.00;40.00;41.00;42.00;43.00;44.00;45.00;46.00;47.00;48.00;49.00;50.00;51.00;52.00;53.00;54.00;55.00;56.00;57.00;58.00;59.00;60.00;62.00;64.00;66.00;68.00;70.00;72.00;74.00;76.00;78.00;80.00;82.00;84.00;86.00;88.00;90.00;92.00;94.00;96.00;98.00;100.00;102.00;104.00;106.00;108.00;110.00;112.00;114.00;116.00;118.00;120.00;122.00;124.00;126.00;128.00;130.00;132.00;134.00;136.00;138.00;140.00;142.00;144.00;146.00;148.00;150.00;152.00;154.00;156.00;158.00;160.00;162.00;164.00;166.00;168.00;170.00;172.00;174.00;176.00;178.00;180.00;182.00;184.00;186.00;188.00;190.00;192.00;194.00;196.00;198.00;200.00;202.00;204.00;206.00;208.00;210.00;212.00;214.00;216.00;218.00;220.00;222.00;224.00;226.00;228.00;230.00;232.00;234.00;236.00;238.00;240.00;242.00;244.00;246.00;248.00;250.00;
		SCAN_CURVETYPE=PDD
		SCAN_OFFAXIS_INPLANE=0.00
		SCAN_OFFAXIS_CROSSPLANE=0.00
		SCAN_ANGLE=0.00
		SCAN_DIAGONAL=NOT_DIAGONAL
		SCAN_DIRECTION=NEGATIVE
		MEAS_PRESET=REFERENCE_DOSEMETER
		MEAS_TIME=0.200
		MEAS_UNIT=A.U.
		SCAN_SPEEDS=20.00; 8.00;40.00; 25.00;100.00; 40.00;400.00; 50.00;
		DELAY_TIMES=20.00; 0.000;150.00; 0.000;400.00; 0.000;
		INCLINATION_ANGLE=0.00
		PRESSURE=1013.30
		TEMPERATURE=20.00
		NORM_TEMPERATURE=20.00
		CORRECTION_FACTOR=1.0000
		BEGIN_DATA
			0.00		778.48E-03		2.9087E+00
			1.00		819.81E-03		2.9141E+00
			2.00		891.88E-03		2.9033E+00
			3.00		1.0150E+00		2.9087E+00
			4.00		1.1616E+00		2.9015E+00
			5.00		1.2615E+00		2.9069E+00
			6.00		1.3438E+00		2.9051E+00
			7.00		1.3962E+00		2.9069E+00
			8.00		1.4369E+00		2.9069E+00
			9.00		1.4671E+00		2.9105E+00
			10.00		1.4918E+00		2.9141E+00
			11.00		1.5059E+00		2.9141E+00
			12.00		1.5175E+00		2.9105E+00
			13.00		1.5256E+00		2.9105E+00
			14.00		1.5288E+00		2.9159E+00
			15.00		1.5308E+00		2.9069E+00
			16.00		1.5290E+00		2.9051E+00
			17.00		1.5289E+00		2.9033E+00
			18.00		1.5222E+00		2.9087E+00
			19.00		1.5160E+00		2.9123E+00
			20.00		1.5107E+00		2.9069E+00
			21.00		1.5062E+00		2.9051E+00
			22.00		1.4998E+00		2.9069E+00
			23.00		1.4942E+00		2.9051E+00
			24.00		1.4889E+00		2.8997E+00
			25.00		1.4805E+00		2.9033E+00
			26.00		1.4734E+00		2.9087E+00
			27.00		1.4673E+00		2.9069E+00
			28.00		1.4618E+00		2.9015E+00
			29.00		1.4548E+00		2.9069E+00
			30.00		1.4482E+00		2.9015E+00
			31.00		1.4396E+00		2.9069E+00
			32.00		1.4342E+00		2.9069E+00
			33.00		1.4252E+00		2.9141E+00
			34.00		1.4194E+00		2.9159E+00
			35.00		1.4174E+00		2.9033E+00
			36.00		1.4046E+00		2.9141E+00
			37.00		1.4016E+00		2.9069E+00
			38.00		1.3926E+00		2.9087E+00
			39.00		1.3863E+00		2.9195E+00
			40.00		1.3789E+00		2.9159E+00
			41.00		1.3741E+00		2.9087E+00
			42.00		1.3665E+00		2.9123E+00
			43.00		1.3612E+00		2.9051E+00
			44.00		1.3541E+00		2.9087E+00
			45.00		1.3479E+00		2.9033E+00
			46.00		1.3427E+00		2.9051E+00
			47.00		1.3346E+00		2.9051E+00
			48.00		1.3269E+00		2.9087E+00
			49.00		1.3229E+00		2.9069E+00
			50.00		1.3128E+00		2.9087E+00
			51.00		1.3077E+00		2.9069E+00
			52.00		1.3025E+00		2.9051E+00
			53.00		1.2979E+00		2.9069E+00
			54.00		1.2903E+00		2.9033E+00
			55.00		1.2824E+00		2.9015E+00
			56.00		1.2767E+00		2.9069E+00
			57.00		1.2697E+00		2.9069E+00
			58.00		1.2629E+00		2.9087E+00
			59.00		1.2580E+00		2.9051E+00
			60.00		1.2501E+00		2.9033E+00
			62.00		1.2390E+00		2.9051E+00
			64.00		1.2272E+00		2.9033E+00
			66.00		1.2105E+00		2.9069E+00
			68.00		1.2000E+00		2.9033E+00
			70.00		1.1882E+00		2.9069E+00
			72.00		1.1754E+00		2.9051E+00
			74.00		1.1645E+00		2.9051E+00
			76.00		1.1495E+00		2.9087E+00
			78.00		1.1390E+00		2.9051E+00
			80.00		1.1242E+00		2.9069E+00
			82.00		1.1138E+00		2.9015E+00
			84.00		1.1024E+00		2.9015E+00
			86.00		1.0922E+00		2.8997E+00
			88.00		1.0791E+00		2.9069E+00
			90.00		1.0667E+00		2.9069E+00
			92.00		1.0571E+00		2.9033E+00
			94.00		1.0450E+00		2.9051E+00
			96.00		1.0325E+00		2.9069E+00
			98.00		1.0234E+00		2.9033E+00
			100.00		1.0108E+00		2.9051E+00
			102.00		1.0019E+00		2.8979E+00
			104.00		989.24E-03		2.9015E+00
			106.00		978.91E-03		2.9015E+00
			108.00		969.55E-03		2.9051E+00
			110.00		956.51E-03		2.9051E+00
			112.00		946.02E-03		2.9123E+00
			114.00		938.12E-03		2.9015E+00
			116.00		928.33E-03		2.9015E+00
			118.00		916.34E-03		2.9033E+00
			120.00		907.70E-03		2.8979E+00
			122.00		894.60E-03		2.9033E+00
			124.00		885.91E-03		2.9015E+00
			126.00		876.67E-03		2.9033E+00
			128.00		867.42E-03		2.8997E+00
			130.00		856.05E-03		2.9087E+00
			132.00		847.26E-03		2.8979E+00
			134.00		838.60E-03		2.9015E+00
			136.00		829.41E-03		2.9051E+00
			138.00		819.63E-03		2.9051E+00
			140.00		809.44E-03		2.9105E+00
			142.00		802.75E-03		2.9033E+00
			144.00		792.14E-03		2.9123E+00
			146.00		783.42E-03		2.9105E+00
			148.00		775.16E-03		2.9069E+00
			150.00		766.40E-03		2.9051E+00
			152.00		758.18E-03		2.9033E+00
			154.00		749.57E-03		2.9051E+00
			156.00		740.54E-03		2.8979E+00
			158.00		734.09E-03		2.8997E+00
			160.00		724.23E-03		2.9087E+00
			162.00		717.62E-03		2.9069E+00
			164.00		708.83E-03		2.9051E+00
			166.00		701.22E-03		2.9051E+00
			168.00		693.42E-03		2.9105E+00
			170.00		687.10E-03		2.9051E+00
			172.00		678.41E-03		2.9051E+00
			174.00		671.10E-03		2.9015E+00
			176.00		662.51E-03		2.9105E+00
			178.00		655.06E-03		2.9123E+00
			180.00		647.62E-03		2.9141E+00
			182.00		639.35E-03		2.9123E+00
			184.00		633.78E-03		2.9105E+00
			186.00		625.80E-03		2.9123E+00
			188.00		620.61E-03		2.9087E+00
			190.00		612.85E-03		2.9069E+00
			192.00		605.42E-03		2.9087E+00
			194.00		599.85E-03		2.9015E+00
			196.00		592.42E-03		2.9033E+00
			198.00		586.25E-03		2.9069E+00
			200.00		580.81E-03		2.8961E+00
			202.00		572.85E-03		2.9033E+00
			204.00		567.41E-03		2.9033E+00
			206.00		560.89E-03		2.9033E+00
			208.00		554.23E-03		2.9069E+00
			210.00		549.48E-03		2.9033E+00
			212.00		542.35E-03		2.9051E+00
			214.00		537.20E-03		2.9033E+00
			216.00		531.54E-03		2.9069E+00
			218.00		524.97E-03		2.9033E+00
			220.00		519.57E-03		2.8961E+00
			222.00		513.49E-03		2.9015E+00
			224.00		507.41E-03		2.9033E+00
			226.00		502.66E-03		2.9069E+00
			228.00		496.11E-03		2.9087E+00
			230.00		490.69E-03		2.9051E+00
			232.00		484.39E-03		2.9087E+00
			234.00		479.91E-03		2.9033E+00
			236.00		474.80E-03		2.9033E+00
			238.00		470.28E-03		2.8997E+00
			240.00		463.65E-03		2.8979E+00
			242.00		459.39E-03		2.8997E+00
			244.00		454.19E-03		2.8961E+00
			246.00		448.39E-03		2.9015E+00
			248.00		443.83E-03		2.8979E+00
			250.00		439.10E-03		2.8961E+00
			252.00		433.66E-03		2.9015E+00
			254.00		430.43E-03		2.8961E+00
			256.00		424.68E-03		2.8889E+00
			258.00		420.02E-03		2.8943E+00
			260.00		414.70E-03		2.8979E+00
			262.00		411.11E-03		2.8925E+00
			264.00		405.48E-03		2.8961E+00
			266.00		402.02E-03		2.8943E+00
			268.00		397.61E-03		2.8943E+00
			270.00		393.46E-03		2.8907E+00
			272.00		388.96E-03		2.8925E+00
			274.00		385.06E-03		2.8907E+00
			276.00		381.42E-03		2.8943E+00
			278.00		375.76E-03		2.8925E+00
			280.00		372.98E-03		2.8925E+00
			282.00		367.73E-03		2.8943E+00
			284.00		364.48E-03		2.8907E+00
			286.00		359.39E-03		2.8943E+00
			288.00		355.35E-03		2.8961E+00
			290.00		353.12E-03		2.8907E+00
			292.00		349.14E-03		2.8907E+00
			294.00		344.28E-03		2.8907E+00
			296.00		340.12E-03		2.8889E+00
			298.00		337.42E-03		2.8943E+00
			300.00		333.07E-03		2.8961E+00
		END_DATA
	END_SCAN  1
	BEGIN_SCAN  2
		TASK_NAME=tba PDD Profiles
		PROGRAM=tbaScan
		COMMENT=profiel 14 t/m 18
		MEAS_DATE=21-Mar-2008 09:55:00
		LINAC=A5 - L081
		MODALITY=X
		ISOCENTER=1000.00
		INPLANE_AXIS=X
		CROSSPLANE_AXIS=Y
		DEPTH_AXIS=Depth
		INPLANE_AXIS_DIR=GUN_TARGET
		CROSSPLANE_AXIS_DIR=RIGHT_LEFT
		DEPTH_AXIS_DIR=UP_DOWN
		ENERGY=6.00
		NOMINAL_DMAX=15.00
		SSD=950.00
		SCD=450.00
		WEDGE_ANGLE=0.00
		FIELD_INPLANE=100.00
		FIELD_CROSSPLANE=100.00
		FIELD_TYPE=RECTANGULAR
		GANTRY=0.00
		GANTRY_UPRIGHT_POSITION=0
		GANTRY_ROTATION=CW
		COLL_ANGLE=90.00
		COLL_OFFSET_INPLANE=0.00
		COLL_OFFSET_CROSSPLANE=0.00
		SCAN_DEVICE=MP3
		SCAN_DEVICE_SETUP=BARA_GUN_TARGET
		ELECTROMETER=TANDEM
		RANGE_FIELD=AUTO
		RANGE_REFERENCE=AUTO
		DETECTOR=THIMBLE_CHAMBER
		DETECTOR_SUBCODE=SEMIFLEX
		DETECTOR_RADIUS=2.75
		DETECTOR_NAME=PTW 31002 Semiflex
		DETECTOR_SN=0573
		DETECTOR_CALIBRATION=263000000.00
		DETECTOR_IS_CALIBRATED=1
		DETECTOR_REFERENCE_CALIBRATION=300000000.00
		REF_FIELD_DEPTH=50.00
		REF_FIELD_DEFINED=ISOCENTER
		REF_FIELD_INPLANE=100.00
		REF_FIELD_CROSSPLANE=100.00
		REF_SCAN_POSITIONS=-150.00;-148.00;-144.00;-140.00;-136.00;-132.00;-128.00;-124.00;-120.00;-116.00;-112.00;-108.00;-104.00;-100.00;-96.00;-92.00;-88.00;-84.00;-80.00;-76.00;-72.00;-68.00;-64.00;-60.00;-59.00;-58.00;-57.00;-56.00;-55.00;-54.00;-53.00;-52.00;-51.00;-50.00;-49.00;-48.00;-47.00;-46.00;-45.00;-44.00;-43.00;-42.00;-41.00;-40.00;-38.00;-36.00;-34.00;-32.00;-30.00;-28.00;-26.00;-24.00;-22.00;-20.00;-18.00;-16.00;-14.00;-12.00;-10.00;-8.00;-6.00;-4.00;-2.00;0.00;2.00;4.00;6.00;8.00;10.00;12.00;14.00;16.00;18.00;20.00;22.00;24.00;26.00;28.00;30.00;32.00;34.00;36.00;38.00;40.00;41.00;42.00;43.00;44.00;45.00;46.00;47.00;48.00;49.00;50.00;51.00;52.00;53.00;54.00;55.00;56.00;57.00;58.00;59.00;60.00;64.00;68.00;72.00;76.00;80.00;84.00;88.00;92.00;96.00;100.00;104.00;108.00;112.00;116.00;120.00;124.00;128.00;132.00;136.00;140.00;144.00;148.00;150.00;
		REF_OVERSCAN_FACTOR=1.00
		SCAN_CURVETYPE=INPLANE_PROFILE
		SCAN_DEPTH=15.00
		SCAN_OFFAXIS_INPLANE=0.00
		SCAN_OFFAXIS_CROSSPLANE=0.00
		SCAN_ANGLE=0.00
		SCAN_DIAGONAL=NOT_DIAGONAL
		SCAN_DIRECTION=POSITIVE
		MEAS_PRESET=REFERENCE_DOSEMETER
		MEAS_TIME=0.200
		MEAS_UNIT=A.U.
		SCAN_SPEEDS=20.00; 8.00;40.00; 25.00;100.00; 40.00;400.00; 50.00;
		DELAY_TIMES=20.00; 0.000;150.00; 0.000;400.00; 0.000;
		INCLINATION_ANGLE=0.00
		PRESSURE=1013.30
		TEMPERATURE=20.00
		NORM_TEMPERATURE=20.00
		CORRECTION_FACTOR=1.0000
		BEGIN_DATA
			-144.75		7.9253E-03		2.9069E+00
			-142.82		8.3156E-03		2.9033E+00
			-138.96		8.8591E-03		2.9033E+00
			-135.10		9.2338E-03		2.9051E+00
			-131.24		9.7226E-03		2.9051E+00
			-127.38		10.455E-03		2.8979E+00
			-123.52		11.149E-03		2.9015E+00
			-119.66		11.881E-03		2.9087E+00
			-115.80		12.756E-03		2.9069E+00
			-111.94		13.483E-03		2.9141E+00
			-108.08		14.232E-03		2.9159E+00
			-104.22		16.082E-03		2.9141E+00
			-100.36		17.327E-03		2.9051E+00
			-96.50		19.023E-03		2.9033E+00
			-92.64		20.909E-03		2.8979E+00
			-88.78		23.004E-03		2.9015E+00
			-84.92		25.967E-03		2.8925E+00
			-81.06		29.240E-03		2.8925E+00
			-77.20		33.467E-03		2.8997E+00
			-73.34		37.735E-03		2.8979E+00
			-69.48		43.861E-03		2.8961E+00
			-65.62		50.843E-03		2.8925E+00
			-61.76		60.588E-03		2.8961E+00
			-57.90		77.382E-03		2.8997E+00
			-56.93		84.295E-03		2.9015E+00
			-55.97		93.983E-03		2.8979E+00
			-55.00		107.53E-03		2.8997E+00
			-54.04		127.05E-03		2.9051E+00
			-53.07		159.14E-03		2.9033E+00
			-52.11		211.50E-03		2.9105E+00
			-51.15		306.86E-03		2.9033E+00
			-50.18		436.71E-03		2.9105E+00
			-49.22		609.60E-03		2.9069E+00
			-48.25		790.90E-03		2.9069E+00
			-47.28		991.96E-03		2.9015E+00
			-46.32		1.1518E+00		2.8961E+00
			-45.35		1.2933E+00		2.9051E+00
			-44.39		1.3843E+00		2.9033E+00
			-43.42		1.4386E+00		2.9033E+00
			-42.46		1.4685E+00		2.9087E+00
			-41.49		1.4872E+00		2.9051E+00
			-40.53		1.4984E+00		2.9087E+00
			-39.56		1.5094E+00		2.8979E+00
			-38.60		1.5133E+00		2.9051E+00
			-36.67		1.5177E+00		2.9069E+00
			-34.74		1.5251E+00		2.9033E+00
			-32.81		1.5294E+00		2.9033E+00
			-30.88		1.5302E+00		2.8997E+00
			-28.95		1.5290E+00		2.8979E+00
			-27.02		1.5304E+00		2.9015E+00
			-25.09		1.5302E+00		2.8997E+00
			-23.16		1.5329E+00		2.8997E+00
			-21.23		1.5348E+00		2.8961E+00
			-19.30		1.5347E+00		2.9015E+00
			-17.37		1.5361E+00		2.8907E+00
			-15.44		1.5335E+00		2.8997E+00
			-13.51		1.5363E+00		2.8943E+00
			-11.58		1.5346E+00		2.8997E+00
			-9.65		1.5355E+00		2.8979E+00
			-7.72		1.5328E+00		2.8979E+00
			-5.79		1.5339E+00		2.8979E+00
			-3.86		1.5302E+00		2.8997E+00
			-1.93		1.5294E+00		2.8961E+00
			0.00		1.5301E+00		2.8979E+00
			1.93		1.5268E+00		2.8979E+00
			3.86		1.5312E+00		2.8979E+00
			5.79		1.5321E+00		2.8889E+00
			7.72		1.5310E+00		2.8961E+00
			9.65		1.5343E+00		2.8889E+00
			11.58		1.5314E+00		2.9015E+00
			13.51		1.5312E+00		2.8979E+00
			15.44		1.5305E+00		2.8961E+00
			17.37		1.5314E+00		2.9015E+00
			19.30		1.5263E+00		2.9051E+00
			21.23		1.5253E+00		2.9069E+00
			23.16		1.5274E+00		2.9051E+00
			25.09		1.5252E+00		2.9051E+00
			27.02		1.5256E+00		2.9033E+00
			28.95		1.5294E+00		2.8889E+00
			30.88		1.5229E+00		2.9033E+00
			32.81		1.5223E+00		2.9033E+00
			34.74		1.5201E+00		2.9087E+00
			36.67		1.5128E+00		2.9123E+00
			38.60		1.5032E+00		2.9141E+00
			39.56		1.4985E+00		2.9105E+00
			40.53		1.4880E+00		2.9141E+00
			41.49		1.4750E+00		2.9141E+00
			42.46		1.4542E+00		2.9069E+00
			43.42		1.4153E+00		2.9033E+00
			44.39		1.3540E+00		2.9123E+00
			45.35		1.2558E+00		2.9051E+00
			46.32		1.1086E+00		2.9051E+00
			47.28		937.50E-03		2.9051E+00
			48.25		741.33E-03		2.9033E+00
			49.22		559.46E-03		2.9051E+00
			50.18		402.21E-03		2.9051E+00
			51.15		278.27E-03		2.9033E+00
			52.11		197.64E-03		2.8997E+00
			53.07		149.25E-03		2.9033E+00
			54.04		120.98E-03		2.9033E+00
			55.00		102.41E-03		2.8997E+00
			55.97		90.549E-03		2.9015E+00
			56.93		81.576E-03		2.9015E+00
			57.90		74.413E-03		2.9051E+00
			61.76		58.426E-03		2.8979E+00
			65.62		48.891E-03		2.9015E+00
			69.48		41.904E-03		2.9033E+00
			73.34		36.505E-03		2.8961E+00
			77.20		31.884E-03		2.9051E+00
			81.06		28.264E-03		2.9087E+00
			84.92		24.877E-03		2.9051E+00
			88.78		22.120E-03		2.9033E+00
			92.64		19.909E-03		2.9087E+00
			96.50		18.228E-03		2.9087E+00
			100.36		16.838E-03		2.9051E+00
			104.22		15.480E-03		2.9051E+00
			108.08		14.366E-03		2.8997E+00
			111.94		13.253E-03		2.9051E+00
			115.80		12.547E-03		2.9051E+00
			119.66		11.638E-03		2.9015E+00
			123.52		10.877E-03		2.9159E+00
			127.38		10.078E-03		2.9123E+00
			131.24		9.7949E-03		2.9159E+00
			135.10		9.1026E-03		2.9123E+00
			138.96		8.7721E-03		2.9141E+00
			142.82		8.3930E-03		2.9141E+00
			144.75		8.0289E-03		2.9087E+00
		END_DATA
	END_SCAN  2
	BEGIN_SCAN  3
		TASK_NAME=tba PDD Profiles
		PROGRAM=tbaScan
		COMMENT=profiel 14 t/m 18
		MEAS_DATE=21-Mar-2008 09:55:00
		LINAC=A5 - L081
		MODALITY=X
		ISOCENTER=1000.00
		INPLANE_AXIS=X
		CROSSPLANE_AXIS=Y
		DEPTH_AXIS=Depth
		INPLANE_AXIS_DIR=GUN_TARGET
		CROSSPLANE_AXIS_DIR=RIGHT_LEFT
		DEPTH_AXIS_DIR=UP_DOWN
		ENERGY=6.00
		NOMINAL_DMAX=15.00
		SSD=950.00
		SCD=450.00
		WEDGE_ANGLE=0.00
		FIELD_INPLANE=100.00
		FIELD_CROSSPLANE=100.00
		FIELD_TYPE=RECTANGULAR
		GANTRY=0.00
		GANTRY_UPRIGHT_POSITION=0
		GANTRY_ROTATION=CW
		COLL_ANGLE=90.00
		COLL_OFFSET_INPLANE=0.00
		COLL_OFFSET_CROSSPLANE=0.00
		SCAN_DEVICE=MP3
		SCAN_DEVICE_SETUP=BARA_GUN_TARGET
		ELECTROMETER=TANDEM
		RANGE_FIELD=AUTO
		RANGE_REFERENCE=AUTO
		DETECTOR=THIMBLE_CHAMBER
		DETECTOR_SUBCODE=SEMIFLEX
		DETECTOR_RADIUS=2.75
		DETECTOR_NAME=PTW 31002 Semiflex
		DETECTOR_SN=0573
		DETECTOR_CALIBRATION=263000000.00
		DETECTOR_IS_CALIBRATED=1
		DETECTOR_REFERENCE_CALIBRATION=300000000.00
		REF_FIELD_DEPTH=50.00
		REF_FIELD_DEFINED=ISOCENTER
		REF_FIELD_INPLANE=100.00
		REF_FIELD_CROSSPLANE=100.00
		REF_SCAN_POSITIONS=-150.00;-148.00;-144.00;-140.00;-136.00;-132.00;-128.00;-124.00;-120.00;-116.00;-112.00;-108.00;-104.00;-100.00;-96.00;-92.00;-88.00;-84.00;-80.00;-76.00;-72.00;-68.00;-64.00;-60.00;-59.00;-58.00;-57.00;-56.00;-55.00;-54.00;-53.00;-52.00;-51.00;-50.00;-49.00;-48.00;-47.00;-46.00;-45.00;-44.00;-43.00;-42.00;-41.00;-40.00;-38.00;-36.00;-34.00;-32.00;-30.00;-28.00;-26.00;-24.00;-22.00;-20.00;-18.00;-16.00;-14.00;-12.00;-10.00;-8.00;-6.00;-4.00;-2.00;0.00;2.00;4.00;6.00;8.00;10.00;12.00;14.00;16.00;18.00;20.00;22.00;24.00;26.00;28.00;30.00;32.00;34.00;36.00;38.00;40.00;41.00;42.00;43.00;44.00;45.00;46.00;47.00;48.00;49.00;50.00;51.00;52.00;53.00;54.00;55.00;56.00;57.00;58.00;59.00;60.00;64.00;68.00;72.00;76.00;80.00;84.00;88.00;92.00;96.00;100.00;104.00;108.00;112.00;116.00;120.00;124.00;128.00;132.00;136.00;140.00;144.00;148.00;150.00;
		REF_OVERSCAN_FACTOR=1.00
		SCAN_CURVETYPE=INPLANE_PROFILE
		SCAN_DEPTH=50.00
		SCAN_OFFAXIS_INPLANE=0.00
		SCAN_OFFAXIS_CROSSPLANE=0.00
		SCAN_ANGLE=0.00
		SCAN_DIAGONAL=NOT_DIAGONAL
		SCAN_DIRECTION=NEGATIVE
		MEAS_PRESET=REFERENCE_DOSEMETER
		MEAS_TIME=0.200
		MEAS_UNIT=A.U.
		SCAN_SPEEDS=20.00; 8.00;40.00; 25.00;100.00; 40.00;400.00; 50.00;
		DELAY_TIMES=20.00; 0.000;150.00; 0.000;400.00; 0.000;
		INCLINATION_ANGLE=0.00
		PRESSURE=1013.30
		TEMPERATURE=20.00
		NORM_TEMPERATURE=20.00
		CORRECTION_FACTOR=1.0000
		BEGIN_DATA
			-150.00		8.9345E-03		2.9141E+00
			-148.00		9.0596E-03		2.9087E+00
			-144.00		9.6807E-03		2.9177E+00
			-140.00		10.342E-03		2.9141E+00
			-136.00		10.992E-03		2.9141E+00
			-132.00		11.508E-03		2.9069E+00
			-128.00		12.354E-03		2.9123E+00
			-124.00		13.266E-03		2.9141E+00
			-120.00		14.096E-03		2.9105E+00
			-116.00		15.063E-03		2.9123E+00
			-112.00		16.265E-03		2.9105E+00
			-108.00		17.642E-03		2.9069E+00
			-104.00		19.385E-03		2.9141E+00
			-100.00		21.170E-03		2.9069E+00
			-96.00		23.530E-03		2.9105E+00
			-92.00		26.164E-03		2.9069E+00
			-88.00		29.439E-03		2.9051E+00
			-84.00		33.079E-03		2.9051E+00
			-80.00		37.991E-03		2.9033E+00
			-76.00		43.725E-03		2.9015E+00
			-72.00		50.631E-03		2.9015E+00
			-68.00		59.531E-03		2.9051E+00
			-64.00		71.362E-03		2.9033E+00
			-60.00		89.350E-03		2.9051E+00
			-59.00		96.912E-03		2.9015E+00
			-58.00		104.88E-03		2.9051E+00
			-57.00		117.56E-03		2.8979E+00
			-56.00		133.13E-03		2.9015E+00
			-55.00		158.42E-03		2.9105E+00
			-54.00		196.18E-03		2.8997E+00
			-53.00		263.00E-03		2.9069E+00
			-52.00		350.50E-03		2.9069E+00
			-51.00		486.59E-03		2.9069E+00
			-50.00		623.94E-03		2.9033E+00
			-49.00		789.27E-03		2.9069E+00
			-48.00		930.41E-03		2.9069E+00
			-47.00		1.0569E+00		2.9069E+00
			-46.00		1.1427E+00		2.9123E+00
			-45.00		1.1986E+00		2.9015E+00
			-44.00		1.2289E+00		2.9123E+00
			-43.00		1.2496E+00		2.9069E+00
			-42.00		1.2629E+00		2.9087E+00
			-41.00		1.2748E+00		2.9051E+00
			-40.00		1.2803E+00		2.9087E+00
			-38.00		1.2908E+00		2.9069E+00
			-36.00		1.2952E+00		2.9141E+00
			-34.00		1.2988E+00		2.9159E+00
			-32.00		1.3033E+00		2.9069E+00
			-30.00		1.3079E+00		2.9051E+00
			-28.00		1.3077E+00		2.9141E+00
			-26.00		1.3109E+00		2.9141E+00
			-24.00		1.3128E+00		2.9051E+00
			-22.00		1.3134E+00		2.9087E+00
			-20.00		1.3161E+00		2.9087E+00
			-18.00		1.3177E+00		2.9087E+00
			-16.00		1.3169E+00		2.9105E+00
			-14.00		1.3193E+00		2.9087E+00
			-12.00		1.3199E+00		2.9015E+00
			-10.00		1.3191E+00		2.9069E+00
			-8.00		1.3213E+00		2.8997E+00
			-6.00		1.3185E+00		2.9069E+00
			-4.00		1.3183E+00		2.9015E+00
			-2.00		1.3166E+00		2.9051E+00
			0.00		1.3172E+00		2.9051E+00
			2.00		1.3155E+00		2.9051E+00
			4.00		1.3142E+00		2.9105E+00
			6.00		1.3155E+00		2.9051E+00
			8.00		1.3153E+00		2.9069E+00
			10.00		1.3166E+00		2.9051E+00
			12.00		1.3177E+00		2.8979E+00
			14.00		1.3172E+00		2.8979E+00
			16.00		1.3158E+00		2.9069E+00
			18.00		1.3136E+00		2.9069E+00
			20.00		1.3131E+00		2.9033E+00
			22.00		1.3115E+00		2.9033E+00
			24.00		1.3079E+00		2.9051E+00
			26.00		1.3025E+00		2.9123E+00
			28.00		1.3036E+00		2.9087E+00
			30.00		1.3033E+00		2.9105E+00
			32.00		1.2998E+00		2.9087E+00
			34.00		1.2957E+00		2.9069E+00
			36.00		1.2912E+00		2.9123E+00
			38.00		1.2854E+00		2.9069E+00
			40.00		1.2737E+00		2.9051E+00
			41.00		1.2664E+00		2.9069E+00
			42.00		1.2606E+00		2.9015E+00
			43.00		1.2475E+00		2.8979E+00
			44.00		1.2294E+00		2.9033E+00
			45.00		1.2020E+00		2.9051E+00
			46.00		1.1559E+00		2.9105E+00
			47.00		1.0857E+00		2.9069E+00
			48.00		978.24E-03		2.9051E+00
			49.00		849.51E-03		2.9051E+00
			50.00		694.05E-03		2.9033E+00
			51.00		538.51E-03		2.9015E+00
			52.00		397.97E-03		2.9087E+00
			53.00		289.37E-03		2.9087E+00
			54.00		214.39E-03		2.9051E+00
			55.00		167.30E-03		2.9087E+00
			56.00		139.46E-03		2.9123E+00
			57.00		121.41E-03		2.9087E+00
			58.00		108.24E-03		2.9069E+00
			59.00		99.026E-03		2.9033E+00
			60.00		91.516E-03		2.9105E+00
			64.00		72.167E-03		2.9015E+00
			68.00		59.585E-03		2.9051E+00
			72.00		51.320E-03		2.9087E+00
			76.00		43.480E-03		2.9069E+00
			80.00		37.951E-03		2.9105E+00
			84.00		33.180E-03		2.9105E+00
			88.00		29.349E-03		2.9087E+00
			92.00		26.148E-03		2.9087E+00
			96.00		23.544E-03		2.9087E+00
			100.00		21.020E-03		2.9051E+00
			104.00		19.554E-03		2.9051E+00
			108.00		17.891E-03		2.9105E+00
			112.00		16.478E-03		2.9015E+00
			116.00		15.308E-03		2.9069E+00
			120.00		14.096E-03		2.9105E+00
			124.00		13.074E-03		2.9087E+00
			128.00		12.322E-03		2.9069E+00
			132.00		11.555E-03		2.9087E+00
			136.00		10.741E-03		2.9087E+00
			140.00		10.327E-03		2.9033E+00
			144.00		9.7166E-03		2.9069E+00
			148.00		9.2110E-03		2.9123E+00
			150.00		8.7558E-03		2.9015E+00
		END_DATA
	END_SCAN  3
	BEGIN_SCAN  4
		TASK_NAME=tba PDD Profiles
		PROGRAM=tbaScan
		COMMENT=profiel 14 t/m 18
		MEAS_DATE=21-Mar-2008 09:55:00
		LINAC=A5 - L081
		MODALITY=X
		ISOCENTER=1000.00
		INPLANE_AXIS=X
		CROSSPLANE_AXIS=Y
		DEPTH_AXIS=Depth
		INPLANE_AXIS_DIR=GUN_TARGET
		CROSSPLANE_AXIS_DIR=RIGHT_LEFT
		DEPTH_AXIS_DIR=UP_DOWN
		ENERGY=6.00
		NOMINAL_DMAX=15.00
		SSD=950.00
		SCD=450.00
		WEDGE_ANGLE=0.00
		FIELD_INPLANE=100.00
		FIELD_CROSSPLANE=100.00
		FIELD_TYPE=RECTANGULAR
		GANTRY=0.00
		GANTRY_UPRIGHT_POSITION=0
		GANTRY_ROTATION=CW
		COLL_ANGLE=90.00
		COLL_OFFSET_INPLANE=0.00
		COLL_OFFSET_CROSSPLANE=0.00
		SCAN_DEVICE=MP3
		SCAN_DEVICE_SETUP=BARA_GUN_TARGET
		ELECTROMETER=TANDEM
		RANGE_FIELD=AUTO
		RANGE_REFERENCE=AUTO
		DETECTOR=THIMBLE_CHAMBER
		DETECTOR_SUBCODE=SEMIFLEX
		DETECTOR_RADIUS=2.75
		DETECTOR_NAME=PTW 31002 Semiflex
		DETECTOR_SN=0573
		DETECTOR_CALIBRATION=263000000.00
		DETECTOR_IS_CALIBRATED=1
		DETECTOR_REFERENCE_CALIBRATION=300000000.00
		REF_FIELD_DEPTH=50.00
		REF_FIELD_DEFINED=ISOCENTER
		REF_FIELD_INPLANE=100.00
		REF_FIELD_CROSSPLANE=100.00
		REF_SCAN_POSITIONS=-150.00;-148.00;-144.00;-140.00;-136.00;-132.00;-128.00;-124.00;-120.00;-116.00;-112.00;-108.00;-104.00;-100.00;-96.00;-92.00;-88.00;-84.00;-80.00;-76.00;-72.00;-68.00;-64.00;-60.00;-59.00;-58.00;-57.00;-56.00;-55.00;-54.00;-53.00;-52.00;-51.00;-50.00;-49.00;-48.00;-47.00;-46.00;-45.00;-44.00;-43.00;-42.00;-41.00;-40.00;-38.00;-36.00;-34.00;-32.00;-30.00;-28.00;-26.00;-24.00;-22.00;-20.00;-18.00;-16.00;-14.00;-12.00;-10.00;-8.00;-6.00;-4.00;-2.00;0.00;2.00;4.00;6.00;8.00;10.00;12.00;14.00;16.00;18.00;20.00;22.00;24.00;26.00;28.00;30.00;32.00;34.00;36.00;38.00;40.00;41.00;42.00;43.00;44.00;45.00;46.00;47.00;48.00;49.00;50.00;51.00;52.00;53.00;54.00;55.00;56.00;57.00;58.00;59.00;60.00;64.00;68.00;72.00;76.00;80.00;84.00;88.00;92.00;96.00;100.00;104.00;108.00;112.00;116.00;120.00;124.00;128.00;132.00;136.00;140.00;144.00;148.00;150.00;
		REF_OVERSCAN_FACTOR=1.00
		SCAN_CURVETYPE=INPLANE_PROFILE
		SCAN_DEPTH=100.00
		SCAN_OFFAXIS_INPLANE=0.00
		SCAN_OFFAXIS_CROSSPLANE=0.00
		SCAN_ANGLE=0.00
		SCAN_DIAGONAL=NOT_DIAGONAL
		SCAN_DIRECTION=POSITIVE
		MEAS_PRESET=REFERENCE_DOSEMETER
		MEAS_TIME=0.200
		MEAS_UNIT=A.U.
		SCAN_SPEEDS=20.00; 8.00;40.00; 25.00;100.00; 40.00;400.00; 50.00;
		DELAY_TIMES=20.00; 0.000;150.00; 0.000;400.00; 0.000;
		INCLINATION_ANGLE=0.00
		PRESSURE=1013.30
		TEMPERATURE=20.00
		NORM_TEMPERATURE=20.00
		CORRECTION_FACTOR=1.0000
		BEGIN_DATA
			-157.50		9.6504E-03		2.9105E+00
			-155.40		10.011E-03		2.9159E+00
			-151.20		10.633E-03		2.9087E+00
			-147.00		11.454E-03		2.9069E+00
			-142.80		12.221E-03		2.9051E+00
			-138.60		13.082E-03		2.9069E+00
			-134.40		13.914E-03		2.9033E+00
			-130.20		15.126E-03		2.9105E+00
			-126.00		16.058E-03		2.9087E+00
			-121.80		17.740E-03		2.8997E+00
			-117.60		19.126E-03		2.9123E+00
			-113.40		20.927E-03		2.9105E+00
			-109.20		23.042E-03		2.9105E+00
			-105.00		25.210E-03		2.9105E+00
			-100.80		28.029E-03		2.9105E+00
			-96.60		31.495E-03		2.9159E+00
			-92.40		35.078E-03		2.9105E+00
			-88.20		39.577E-03		2.9105E+00
			-84.00		45.078E-03		2.9159E+00
			-79.80		51.193E-03		2.9159E+00
			-75.60		58.841E-03		2.9177E+00
			-71.40		68.107E-03		2.9123E+00
			-67.20		80.406E-03		2.9123E+00
			-63.00		97.462E-03		2.9159E+00
			-61.95		103.33E-03		2.9105E+00
			-60.90		111.20E-03		2.9033E+00
			-59.85		120.56E-03		2.9069E+00
			-58.80		135.00E-03		2.9105E+00
			-57.75		154.36E-03		2.9123E+00
			-56.70		188.56E-03		2.9105E+00
			-55.65		239.39E-03		2.9069E+00
			-54.60		317.74E-03		2.9141E+00
			-53.55		418.14E-03		2.9069E+00
			-52.50		529.47E-03		2.9123E+00
			-51.45		647.59E-03		2.9069E+00
			-50.40		746.15E-03		2.9015E+00
			-49.35		827.78E-03		2.9051E+00
			-48.30		878.84E-03		2.9087E+00
			-47.25		911.36E-03		2.9105E+00
			-46.20		933.12E-03		2.9069E+00
			-45.15		946.65E-03		2.9087E+00
			-44.10		953.56E-03		2.9141E+00
			-43.05		963.47E-03		2.9087E+00
			-42.00		968.52E-03		2.9033E+00
			-39.90		977.09E-03		2.9069E+00
			-37.80		981.98E-03		2.9069E+00
			-35.70		987.27E-03		2.9105E+00
			-33.60		992.50E-03		2.9015E+00
			-31.50		997.55E-03		2.8979E+00
			-29.40		999.89E-03		2.9069E+00
			-27.30		1.0019E+00		2.9105E+00
			-25.20		1.0037E+00		2.9069E+00
			-23.10		1.0054E+00		2.9051E+00
			-21.00		1.0068E+00		2.9105E+00
			-18.90		1.0073E+00		2.9105E+00
			-16.80		1.0113E+00		2.9069E+00
			-14.70		1.0106E+00		2.9105E+00
			-12.60		1.0127E+00		2.9123E+00
			-10.50		1.0154E+00		2.9123E+00
			-8.40		1.0143E+00		2.9123E+00
			-6.30		1.0137E+00		2.9123E+00
			-4.20		1.0149E+00		2.9105E+00
			-2.10		1.0117E+00		2.9105E+00
			0.00		1.0115E+00		2.9141E+00
			2.10		1.0110E+00		2.9123E+00
			4.20		1.0110E+00		2.9141E+00
			6.30		1.0116E+00		2.9123E+00
			8.40		1.0122E+00		2.9105E+00
			10.50		1.0135E+00		2.9051E+00
			12.60		1.0120E+00		2.9141E+00
			14.70		1.0115E+00		2.9141E+00
			16.80		1.0075E+00		2.9195E+00
			18.90		1.0080E+00		2.9195E+00
			21.00		1.0048E+00		2.9195E+00
			23.10		1.0030E+00		2.9105E+00
			25.20		999.58E-03		2.9141E+00
			27.30		997.34E-03		2.9159E+00
			29.40		993.01E-03		2.9159E+00
			31.50		993.99E-03		2.9051E+00
			33.60		988.75E-03		2.9141E+00
			35.70		983.41E-03		2.9123E+00
			37.80		978.88E-03		2.9177E+00
			39.90		970.29E-03		2.9159E+00
			42.00		962.33E-03		2.9105E+00
			43.05		955.53E-03		2.9213E+00
			44.10		947.92E-03		2.9231E+00
			45.15		935.51E-03		2.9231E+00
			46.20		918.85E-03		2.9177E+00
			47.25		896.15E-03		2.9159E+00
			48.30		857.70E-03		2.9123E+00
			49.35		799.04E-03		2.9069E+00
			50.40		712.94E-03		2.9105E+00
			51.45		610.96E-03		2.9159E+00
			52.50		499.05E-03		2.9105E+00
			53.55		385.84E-03		2.9069E+00
			54.60		297.81E-03		2.9105E+00
			55.65		222.37E-03		2.9051E+00
			56.70		176.37E-03		2.9015E+00
			57.75		146.96E-03		2.9033E+00
			58.80		129.11E-03		2.9051E+00
			59.85		116.98E-03		2.8961E+00
			60.90		107.59E-03		2.9069E+00
			61.95		100.50E-03		2.9015E+00
			63.00		94.356E-03		2.9015E+00
			67.20		78.035E-03		2.8997E+00
			71.40		66.688E-03		2.9033E+00
			75.60		57.592E-03		2.9015E+00
			79.80		50.328E-03		2.9033E+00
			84.00		43.860E-03		2.9069E+00
			88.20		38.704E-03		2.9069E+00
			92.40		34.068E-03		2.9087E+00
			96.60		30.561E-03		2.9069E+00
			100.80		27.304E-03		2.9069E+00
			105.00		24.792E-03		2.9087E+00
			109.20		22.569E-03		2.9015E+00
			113.40		20.486E-03		2.8961E+00
			117.60		18.828E-03		2.8997E+00
			121.80		17.272E-03		2.8961E+00
			126.00		16.019E-03		2.8961E+00
			130.20		14.820E-03		2.8961E+00
			134.40		13.684E-03		2.8943E+00
			138.60		12.959E-03		2.8979E+00
			142.80		11.870E-03		2.8979E+00
			147.00		11.366E-03		2.9015E+00
			151.20		10.537E-03		2.9051E+00
			155.40		9.8435E-03		2.9015E+00
			157.50		9.4745E-03		2.8979E+00
		END_DATA
	END_SCAN  4
	BEGIN_SCAN  5
		TASK_NAME=tba PDD Profiles
		PROGRAM=tbaScan
		COMMENT=profiel 14 t/m 18
		MEAS_DATE=21-Mar-2008 09:55:00
		LINAC=A5 - L081
		MODALITY=X
		ISOCENTER=1000.00
		INPLANE_AXIS=X
		CROSSPLANE_AXIS=Y
		DEPTH_AXIS=Depth
		INPLANE_AXIS_DIR=GUN_TARGET
		CROSSPLANE_AXIS_DIR=RIGHT_LEFT
		DEPTH_AXIS_DIR=UP_DOWN
		ENERGY=6.00
		NOMINAL_DMAX=15.00
		SSD=950.00
		SCD=450.00
		WEDGE_ANGLE=0.00
		FIELD_INPLANE=100.00
		FIELD_CROSSPLANE=100.00
		FIELD_TYPE=RECTANGULAR
		GANTRY=0.00
		GANTRY_UPRIGHT_POSITION=0
		GANTRY_ROTATION=CW
		COLL_ANGLE=90.00
		COLL_OFFSET_INPLANE=0.00
		COLL_OFFSET_CROSSPLANE=0.00
		SCAN_DEVICE=MP3
		SCAN_DEVICE_SETUP=BARA_GUN_TARGET
		ELECTROMETER=TANDEM
		RANGE_FIELD=AUTO
		RANGE_REFERENCE=AUTO
		DETECTOR=THIMBLE_CHAMBER
		DETECTOR_SUBCODE=SEMIFLEX
		DETECTOR_RADIUS=2.75
		DETECTOR_NAME=PTW 31002 Semiflex
		DETECTOR_SN=0573
