BEGIN_SCAN_DATA
	FORMAT=CC-Export V1.9                  
	FILE_CREATION_DATE=07-Jan-2013 22:04:57
	LAST_MODIFIED=07-Jan-2013 22:04:57
	BEGIN_SCAN  1
		TASK_NAME=tba PDD Profiles
		PROGRAM=tbaScan
		MEAS_DATE=07-Jan-2013 21:44:55
		LINAC=U1
		MODALITY=X
		ISOCENTER=1435.00
		INPLANE_AXIS=Inplane
		CROSSPLANE_AXIS=Crossplane
		DEPTH_AXIS=Depth
		INPLANE_AXIS_DIR=GUN_TARGET
		CROSSPLANE_AXIS_DIR=RIGHT_LEFT
		DEPTH_AXIS_DIR=UP_DOWN
		ENERGY=8.00
		NOMINAL_DMAX=0.00
		SSD=1335.00
		SCD=450.00
		WEDGE_ANGLE=0.00
		FIELD_INPLANE=20.00
		FIELD_CROSSPLANE=20.00
		FIELD_TYPE=RECTANGULAR
		GANTRY=0.00
		GANTRY_UPRIGHT_POSITION=0
		GANTRY_ROTATION=CW
		COLL_ANGLE=0.00
		COLL_OFFSET_INPLANE=0.00
		COLL_OFFSET_CROSSPLANE=0.00
		SCAN_DEVICE=MP3
		SCAN_DEVICE_SETUP=BARA_LEFT_RIGHT
		ELECTROMETER=TANDEM
		RANGE_FIELD=AUTO
		RANGE_REFERENCE=AUTO
		DETECTOR=THIMBLE_CHAMBER
		DETECTOR_RADIUS=0.20
		DETECTOR_NAME=IBA CC04
		DETECTOR_SN=0000
		DETECTOR_CALIBRATION=1250000000.00
		DETECTOR_IS_CALIBRATED=0
		DETECTOR_REFERENCE=THIMBLE_CHAMBER
		DETECTOR_REFERENCE_SUBCODE=SEMIFLEX
		DETECTOR_REFERENCE_RADIUS=2.75
		DETECTOR_REFERENCE_NAME=PTW 31010 Semiflex
		DETECTOR_REFERENCE_SN=0000
		DETECTOR_REFERENCE_IS_CALIBRATED=0
		DETECTOR_REFERENCE_CALIBRATION=300000000.00
		DETECTOR_HV=200.0
		DETECTOR_REFERENCE_HV=-200.0
		REF_FIELD_DEPTH=100.00
		REF_FIELD_DEFINED=DEPTH
		REF_FIELD_INPLANE=20.00
		REF_FIELD_CROSSPLANE=20.00
		REF_SCAN_POSITIONS=-60.00;-55.00;-50.00;-45.00;-40.00;-35.00;-30.00;-29.00;-28.00;-27.00;-26.00;-25.00;-24.00;-23.00;-22.00;-21.00;-20.00;-19.00;-18.00;-17.00;-16.00;-15.00;-14.00;-13.00;-12.00;-11.00;-10.00;-9.00;-8.00;-7.00;-6.00;-5.00;-4.00;-3.00;-2.00;-1.00;0.00;1.00;2.00;3.00;4.00;5.00;6.00;7.00;8.00;9.00;10.00;11.00;12.00;13.00;14.00;15.00;16.00;17.00;18.00;19.00;20.00;21.00;22.00;23.00;24.00;25.00;26.00;27.00;28.00;29.00;30.00;35.00;40.00;45.00;50.00;55.00;60.00;
		REF_OVERSCAN_FACTOR=1.00
		SCAN_CURVETYPE=INPLANE_PROFILE
		SCAN_DEPTH=13.00
		SCAN_OFFAXIS_INPLANE=0.00
		SCAN_OFFAXIS_CROSSPLANE=3.50
		SCAN_ANGLE=0.00
		SCAN_DIAGONAL=NOT_DIAGONAL
		SCAN_DIRECTION=POSITIVE
		MEAS_MEDIUM=WATER
		MEAS_PRESET=TIME_PRESET
		MEAS_TIME=0.500
		MEAS_UNIT=Gy/min
		SCAN_SPEEDS=100.00; 8.00;392.10; 8.00;400.00; 8.00;
		DELAY_TIMES=20.00; 0.000;150.00; 0.000;400.00; 0.000;
		INCLINATION_ANGLE=0.00
		PRESSURE=1013.25
		TEMPERATURE=20.00
		NORM_TEMPERATURE=20.00
		CORRECTION_FACTOR=1.0000
		EXPECTED_MAX_DOSE_RATE=5.00
		BEGIN_DATA
			-56.36		24.750E-02
			-51.67		26.250E-03
			-46.97		27.750E-03
			-42.27		30.750E-03
			-37.57		36.000E-03
			-32.88		43.500E-03
			-28.18		54.750E-03
			-27.24		57.750E-03
			-26.30		61.500E-03
			-25.36		66.000E-03
			-24.42		72.750E-03
			-23.48		80.250E-03
			-22.54		90.750E-03
			-21.61		103.50E-03
			-20.67		120.00E-03
			-19.73		143.25E-03
			-18.79		171.75E-03
			-17.85		213.75E-03
			-16.91		276.75E-03
			-15.97		377.25E-03
			-15.03		545.25E-03
			-14.09		817.50E-03
			-13.15		1.2428E+00
			-12.21		1.8698E+00
			-11.27		2.7443E+00
			-10.33		3.8010E+00
			-9.39		4.9395E+00
			-8.45		6.0593E+00
			-7.51		6.9788E+00
			-6.58		7.6125E+00
			-5.64		8.0175E+00
			-4.70		8.2350E+00
			-3.76		8.3625E+00
			-2.82		8.4300E+00
			-1.88		8.4675E+00
			-0.94		8.4750E+00
			0.00		8.4675E+00
			0.94		8.4600E+00
			1.88		8.3925E+00
			2.82		8.2800E+00
			3.76		8.0850E+00
			4.70		7.7550E+00
			5.64		7.2525E+00
			6.58		6.5115E+00
			7.51		5.5455E+00
			8.45		4.4543E+00
			9.39		3.2955E+00
			10.33		2.2590E+00
			11.27		1.4828E+00
			12.21		957.75E-03
			13.15		633.00E-03
			14.09		435.00E-03
			15.03		310.50E-03
			15.97		231.00E-03
			16.91		180.00E-03
			17.85		148.50E-03
			18.79		124.50E-03
			19.73		110.25E-03
			20.67		97.500E-03
			21.61		90.000E-03
			22.54		83.250E-03
			23.48		78.000E-03
			24.42		72.750E-03
			25.36		67.500E-03
			26.30		64.500E-03
			27.24		62.250E-03
			28.18		59.250E-03
			32.88		50.250E-03
			37.57		43.500E-03
			42.27		39.000E-03
			46.97		36.000E-03
			51.67		33.750E-03
			56.36		31.500E-03
		END_DATA
	END_SCAN  1
END_SCAN_DATA
