BEGIN_SCAN_DATA
	FORMAT=CC-Export V1.9                  
	FILE_CREATION_DATE=13-Mar-2012 10:29:25
	LAST_MODIFIED=13-Mar-2012 10:29:25
	BEGIN_SCAN  1
		TASK_NAME=tba PDD Profiles
		PROGRAM=tbaScan
		MEAS_DATE=27-Feb-2012 17:33:03
		LINAC=A3 - L121
		MODALITY=X
		ISOCENTER=1000.00
		INPLANE_AXIS=X
		CROSSPLANE_AXIS=Y
		DEPTH_AXIS=Depth
		INPLANE_AXIS_DIR=GUN_TARGET
		CROSSPLANE_AXIS_DIR=RIGHT_LEFT
		DEPTH_AXIS_DIR=UP_DOWN
		ENERGY=6.00
		NOMINAL_DMAX=15.00
		SSD=900.00
		SCD=450.00
		WEDGE_ANGLE=0.00
		FIELD_INPLANE=300.00
		FIELD_CROSSPLANE=300.00
		FIELD_TYPE=RECTANGULAR
		GANTRY=0.00
		GANTRY_UPRIGHT_POSITION=0
		GANTRY_ROTATION=CW
		COLL_ANGLE=90.00
		COLL_OFFSET_INPLANE=0.00
		COLL_OFFSET_CROSSPLANE=0.00
		SCAN_DEVICE=MP3
		SCAN_DEVICE_SETUP=BARA_GUN_TARGET
		ELECTROMETER=TANDEM
		RANGE_FIELD=MEDIUM
		RANGE_REFERENCE=AUTO
		DETECTOR=LIQUID
		DETECTOR_RADIUS=0.00
		DETECTOR_NAME=PTW 31018 MicroLion
		DETECTOR_SN=00149
		DETECTOR_CALIBRATION=2130000.00
		DETECTOR_IS_CALIBRATED=1
		DETECTOR_REFERENCE=THIMBLE_CHAMBER
		DETECTOR_REFERENCE_SUBCODE=SEMIFLEX
		DETECTOR_REFERENCE_RADIUS=2.75
		DETECTOR_REFERENCE_NAME=PTW 31010 Semiflex
		DETECTOR_REFERENCE_SN=1726
		DETECTOR_REFERENCE_IS_CALIBRATED=1
		DETECTOR_REFERENCE_CALIBRATION=304400000.00
		DETECTOR_HV=800.0
		DETECTOR_REFERENCE_HV=350.0
		REF_FIELD_DEPTH=100.00
		REF_FIELD_DEFINED=ISOCENTER
		REF_FIELD_INPLANE=100.00
		REF_FIELD_CROSSPLANE=100.00
		REF_SCAN_POSITIONS=-150.00;-148.00;-144.00;-140.00;-136.00;-132.00;-128.00;-124.00;-120.00;-116.00;-112.00;-108.00;-104.00;-100.00;-96.00;-92.00;-88.00;-84.00;-80.00;-76.00;-72.00;-68.00;-64.00;-60.00;-59.00;-58.00;-57.00;-56.00;-55.00;-54.00;-53.00;-52.00;-51.00;-50.00;-49.00;-48.00;-47.00;-46.00;-45.00;-44.00;-43.00;-42.00;-41.00;-40.00;-36.00;-32.00;-28.00;-24.00;-20.00;-16.00;-12.00;-8.00;-4.00;0.00;4.00;8.00;12.00;16.00;20.00;24.00;28.00;32.00;36.00;40.00;41.00;42.00;43.00;44.00;45.00;46.00;47.00;48.00;49.00;50.00;51.00;52.00;53.00;54.00;55.00;56.00;57.00;58.00;59.00;60.00;64.00;68.00;72.00;76.00;80.00;84.00;88.00;92.00;96.00;100.00;104.00;108.00;112.00;116.00;120.00;124.00;128.00;132.00;136.00;140.00;144.00;148.00;150.00;
		REF_OVERSCAN_FACTOR=1.00
		SCAN_CURVETYPE=INPLANE_PROFILE
		SCAN_DEPTH=100.00
		SCAN_OFFAXIS_INPLANE=0.00
		SCAN_OFFAXIS_CROSSPLANE=0.00
		SCAN_ANGLE=0.00
		SCAN_DIAGONAL=NOT_DIAGONAL
		SCAN_DIRECTION=POSITIVE
		MEAS_MEDIUM=WATER
		MEAS_PRESET=REFERENCE_DOSEMETER
		MEAS_TIME=0.300
		MEAS_UNIT=A.U.
		SCAN_SPEEDS=20.00; 50.00;40.00; 50.00;100.00; 50.00;400.00; 50.00;
		DELAY_TIMES=20.00; 0.000;150.00; 0.000;400.00; 0.000;
		INCLINATION_ANGLE=0.00
		PRESSURE=1013.25
		TEMPERATURE=20.00
		NORM_TEMPERATURE=20.00
		CORRECTION_FACTOR=1.0000
		EXPECTED_MAX_DOSE_RATE=6.00
		BEGIN_DATA
			-244.00		379.66E-06		6.3285E+00
			-240.00		408.64E-06		6.3175E+00
			-236.00		429.89E-06		6.3321E+00
			-232.00		460.83E-06		6.3230E+00
			-228.00		493.34E-06		6.3467E+00
			-224.00		530.04E-06		6.3413E+00
			-220.00		566.16E-06		6.3431E+00
			-216.00		605.31E-06		6.3340E+00
			-212.00		653.17E-06		6.3394E+00
			-208.00		705.99E-06		6.3358E+00
			-204.00		765.84E-06		6.3413E+00
			-200.00		845.28E-06		6.3047E+00
			-196.00		925.86E-06		6.3358E+00
			-192.00		1.0129E-03		6.3340E+00
			-188.00		1.1098E-03		6.3449E+00
			-184.00		1.2169E-03		6.3431E+00
			-180.00		1.3314E-03		6.3449E+00
			-176.00		1.4704E-03		6.3449E+00
			-172.00		1.6415E-03		6.3376E+00
			-168.00		1.8279E-03		6.3486E+00
			-164.00		2.0678E-03		6.3413E+00
			-160.00		2.4009E-03		6.3504E+00
			-159.00		2.5149E-03		6.3522E+00
			-158.00		2.6416E-03		6.3522E+00
			-157.00		2.8074E-03		6.3504E+00
			-156.00		3.0210E-03		6.3540E+00
			-155.00		3.3287E-03		6.3540E+00
			-154.00		3.7725E-03		6.3486E+00
			-153.00		4.5315E-03		6.3540E+00
			-152.00		5.7667E-03		6.3449E+00
			-151.00		7.6941E-03		6.3467E+00
			-150.00		9.9813E-03		6.3431E+00
			-149.00		12.085E-03		6.3449E+00
			-148.00		13.326E-03		6.3467E+00
			-147.00		14.075E-03		6.3449E+00
			-146.00		14.498E-03		6.3431E+00
			-145.00		14.724E-03		6.3431E+00
			-144.00		14.919E-03		6.3467E+00
			-143.00		15.067E-03		6.3431E+00
			-142.00		15.157E-03		6.3449E+00
			-141.00		15.237E-03		6.3467E+00
			-140.00		15.321E-03		6.3504E+00
			-136.00		15.540E-03		6.3504E+00
			-132.00		15.685E-03		6.3449E+00
			-128.00		15.835E-03		6.3413E+00
			-124.00		15.948E-03		6.3595E+00
			-120.00		16.052E-03		6.3486E+00
			-116.00		16.149E-03		6.3486E+00
			-112.00		16.227E-03		6.3486E+00
			-108.00		16.316E-03		6.3522E+00
			-104.00		16.347E-03		6.3394E+00
			-100.00		16.395E-03		6.3413E+00
			-96.00		16.397E-03		6.3413E+00
			-92.00		16.442E-03		6.3303E+00
			-88.00		16.446E-03		6.3285E+00
			-84.00		16.421E-03		6.3376E+00
			-80.00		16.442E-03		6.3358E+00
			-76.00		16.435E-03		6.3431E+00
			-72.00		16.448E-03		6.3358E+00
			-68.00		16.451E-03		6.3321E+00
			-64.00		16.480E-03		6.3358E+00
			-60.00		16.472E-03		6.3394E+00
			-56.00		16.484E-03		6.3358E+00
			-52.00		16.518E-03		6.3321E+00
			-48.00		16.519E-03		6.3285E+00
			-44.00		16.512E-03		6.3467E+00
			-40.00		16.562E-03		6.3321E+00
			-36.00		16.506E-03		6.3413E+00
			-32.00		16.511E-03		6.3376E+00
			-28.00		16.509E-03		6.3340E+00
			-24.00		16.487E-03		6.3285E+00
			-20.00		16.450E-03		6.3248E+00
			-16.00		16.458E-03		6.3358E+00
			-12.00		16.427E-03		6.3266E+00
			-8.00		16.428E-03		6.3230E+00
			-4.00		16.397E-03		6.3413E+00
			0.00		16.378E-03		6.3321E+00
			4.00		16.398E-03		6.3376E+00
			8.00		16.469E-03		6.3285E+00
			12.00		16.470E-03		6.3413E+00
			16.00		16.477E-03		6.3376E+00
			20.00		16.526E-03		6.3358E+00
			24.00		16.585E-03		6.3394E+00
			28.00		16.607E-03		6.3394E+00
			32.00		16.633E-03		6.3358E+00
			36.00		16.649E-03		6.3358E+00
			40.00		16.682E-03		6.3340E+00
			44.00		16.649E-03		6.3321E+00
			48.00		16.646E-03		6.3340E+00
			52.00		16.631E-03		6.3303E+00
			56.00		16.609E-03		6.3358E+00
			60.00		16.611E-03		6.3358E+00
			64.00		16.606E-03		6.3321E+00
			68.00		16.628E-03		6.3285E+00
			72.00		16.606E-03		6.3285E+00
			76.00		16.612E-03		6.3376E+00
			80.00		16.587E-03		6.3358E+00
			84.00		16.601E-03		6.3358E+00
			88.00		16.603E-03		6.3266E+00
			92.00		16.600E-03		6.3431E+00
			96.00		16.580E-03		6.3321E+00
			100.00		16.536E-03		6.3413E+00
			104.00		16.491E-03		6.3431E+00
			108.00		16.439E-03		6.3376E+00
			112.00		16.382E-03		6.3230E+00
			116.00		16.283E-03		6.3266E+00
			120.00		16.183E-03		6.3431E+00
			124.00		16.069E-03		6.3340E+00
			128.00		15.968E-03		6.3340E+00
			132.00		15.815E-03		6.3266E+00
			136.00		15.664E-03		6.3248E+00
			140.00		15.404E-03		6.3303E+00
			141.00		15.322E-03		6.3285E+00
			142.00		15.203E-03		6.3340E+00
			143.00		15.075E-03		6.3431E+00
			144.00		14.900E-03		6.3376E+00
			145.00		14.695E-03		6.3321E+00
			146.00		14.338E-03		6.3266E+00
			147.00		13.694E-03		6.3303E+00
			148.00		12.509E-03		6.3321E+00
			149.00		10.656E-03		6.3230E+00
			150.00		8.2239E-03		6.3248E+00
			151.00		6.1946E-03		6.3358E+00
			152.00		4.7760E-03		6.3285E+00
			153.00		3.9282E-03		6.3376E+00
			154.00		3.4139E-03		6.3303E+00
			155.00		3.0761E-03		6.3358E+00
			156.00		2.8554E-03		6.3376E+00
			157.00		2.6849E-03		6.3212E+00
			158.00		2.5350E-03		6.3321E+00
			159.00		2.4147E-03		6.3193E+00
			160.00		2.3190E-03		6.3266E+00
			164.00		2.0177E-03		6.3340E+00
			168.00		1.7811E-03		6.3358E+00
			172.00		1.5877E-03		6.3266E+00
			176.00		1.4423E-03		6.3266E+00
			180.00		1.2998E-03		6.3321E+00
			184.00		1.1794E-03		6.3285E+00
			188.00		1.0743E-03		6.3285E+00
			192.00		992.42E-06		6.3358E+00
			196.00		900.67E-06		6.3285E+00
			200.00		821.68E-06		6.3303E+00
			204.00		744.53E-06		6.3340E+00
			208.00		686.37E-06		6.3120E+00
			212.00		635.57E-06		6.3139E+00
			216.00		588.34E-06		6.3212E+00
			220.00		549.45E-06		6.3266E+00
			224.00		510.33E-06		6.3358E+00
			228.00		480.49E-06		6.3303E+00
			232.00		447.20E-06		6.3157E+00
			236.00		419.92E-06		6.3303E+00
		END_DATA
	END_SCAN  1
	BEGIN_SCAN  2
		TASK_NAME=tba PDD Profiles
		PROGRAM=tbaScan
		MEAS_DATE=27-Feb-2012 17:27:41
		LINAC=A3 - L121
		MODALITY=X
		ISOCENTER=1000.00
		INPLANE_AXIS=X
		CROSSPLANE_AXIS=Y
		DEPTH_AXIS=Depth
		INPLANE_AXIS_DIR=GUN_TARGET
		CROSSPLANE_AXIS_DIR=RIGHT_LEFT
		DEPTH_AXIS_DIR=UP_DOWN
		ENERGY=10.00
		NOMINAL_DMAX=23.00
		SSD=900.00
		SCD=450.00
		WEDGE_ANGLE=0.00
		FIELD_INPLANE=300.00
		FIELD_CROSSPLANE=300.00
		FIELD_TYPE=RECTANGULAR
		GANTRY=0.00
		GANTRY_UPRIGHT_POSITION=0
		GANTRY_ROTATION=CW
		COLL_ANGLE=90.00
		COLL_OFFSET_INPLANE=0.00
		COLL_OFFSET_CROSSPLANE=0.00
		SCAN_DEVICE=MP3
		SCAN_DEVICE_SETUP=BARA_GUN_TARGET
		ELECTROMETER=TANDEM
		RANGE_FIELD=MEDIUM
		RANGE_REFERENCE=AUTO
		DETECTOR=LIQUID
		DETECTOR_RADIUS=0.00
		DETECTOR_NAME=PTW 31018 MicroLion
		DETECTOR_SN=00149
		DETECTOR_CALIBRATION=2130000.00
		DETECTOR_IS_CALIBRATED=1
		DETECTOR_REFERENCE=THIMBLE_CHAMBER
		DETECTOR_REFERENCE_SUBCODE=SEMIFLEX
		DETECTOR_REFERENCE_RADIUS=2.75
		DETECTOR_REFERENCE_NAME=PTW 31010 Semiflex
		DETECTOR_REFERENCE_SN=1726
		DETECTOR_REFERENCE_IS_CALIBRATED=1
		DETECTOR_REFERENCE_CALIBRATION=304400000.00
		DETECTOR_HV=800.0
		DETECTOR_REFERENCE_HV=350.0
		REF_FIELD_DEPTH=100.00
		REF_FIELD_DEFINED=ISOCENTER
		REF_FIELD_INPLANE=100.00
		REF_FIELD_CROSSPLANE=100.00
		REF_SCAN_POSITIONS=-150.00;-148.00;-144.00;-140.00;-136.00;-132.00;-128.00;-124.00;-120.00;-116.00;-112.00;-108.00;-104.00;-100.00;-96.00;-92.00;-88.00;-84.00;-80.00;-76.00;-72.00;-68.00;-64.00;-60.00;-59.00;-58.00;-57.00;-56.00;-55.00;-54.00;-53.00;-52.00;-51.00;-50.00;-49.00;-48.00;-47.00;-46.00;-45.00;-44.00;-43.00;-42.00;-41.00;-40.00;-36.00;-32.00;-28.00;-24.00;-20.00;-16.00;-12.00;-8.00;-4.00;0.00;4.00;8.00;12.00;16.00;20.00;24.00;28.00;32.00;36.00;40.00;41.00;42.00;43.00;44.00;45.00;46.00;47.00;48.00;49.00;50.00;51.00;52.00;53.00;54.00;55.00;56.00;57.00;58.00;59.00;60.00;64.00;68.00;72.00;76.00;80.00;84.00;88.00;92.00;96.00;100.00;104.00;108.00;112.00;116.00;120.00;124.00;128.00;132.00;136.00;140.00;144.00;148.00;150.00;
		REF_OVERSCAN_FACTOR=1.00
		SCAN_CURVETYPE=INPLANE_PROFILE
		SCAN_DEPTH=100.00
		SCAN_OFFAXIS_INPLANE=0.00
		SCAN_OFFAXIS_CROSSPLANE=0.00
		SCAN_ANGLE=0.00
		SCAN_DIAGONAL=NOT_DIAGONAL
		SCAN_DIRECTION=POSITIVE
		MEAS_MEDIUM=WATER
		MEAS_PRESET=REFERENCE_DOSEMETER
		MEAS_TIME=0.300
		MEAS_UNIT=A.U.
		SCAN_SPEEDS=20.00; 50.00;40.00; 50.00;100.00; 50.00;400.00; 50.00;
		DELAY_TIMES=20.00; 0.000;150.00; 0.000;400.00; 0.000;
		INCLINATION_ANGLE=0.00
		PRESSURE=1013.25
		TEMPERATURE=20.00
		NORM_TEMPERATURE=20.00
		CORRECTION_FACTOR=1.0000
		EXPECTED_MAX_DOSE_RATE=6.00
		BEGIN_DATA
			-244.00		362.29E-06		4.2683E+00
			-240.00		376.46E-06		4.2774E+00
			-236.00		401.22E-06		4.2683E+00
			-232.00		427.80E-06		4.2719E+00
			-228.00		460.71E-06		4.2719E+00
			-224.00		487.22E-06		4.2756E+00
			-220.00		526.07E-06		4.2756E+00
			-216.00		571.64E-06		4.2701E+00
			-212.00		613.02E-06		4.2738E+00
			-208.00		667.41E-06		4.2701E+00
			-204.00		725.10E-06		4.2829E+00
			-200.00		810.38E-06		4.2738E+00
			-196.00		894.11E-06		4.2738E+00
			-192.00		982.14E-06		4.2811E+00
			-188.00		1.0857E-03		4.2610E+00
			-184.00		1.1857E-03		4.2683E+00
			-180.00		1.3128E-03		4.2738E+00
			-176.00		1.4574E-03		4.2354E+00
			-172.00		1.6387E-03		4.2738E+00
			-168.00		1.8406E-03		4.2701E+00
			-164.00		2.1264E-03		4.2793E+00
			-160.00		2.5717E-03		4.2738E+00
			-159.00		2.7249E-03		4.2774E+00
			-158.00		2.9061E-03		4.2701E+00
			-157.00		3.1349E-03		4.2683E+00
			-156.00		3.4045E-03		4.2756E+00
			-155.00		3.8026E-03		4.2683E+00
			-154.00		4.3475E-03		4.2683E+00
			-153.00		5.2331E-03		4.2665E+00
			-152.00		6.5365E-03		4.2701E+00
			-151.00		8.6188E-03		4.2719E+00
			-150.00		11.201E-03		4.2683E+00
			-149.00		13.647E-03		4.2610E+00
			-148.00		15.240E-03		4.2482E+00
			-147.00		16.183E-03		4.2701E+00
			-146.00		16.719E-03		4.2738E+00
			-145.00		17.142E-03		4.2756E+00
			-144.00		17.371E-03		4.2774E+00
			-143.00		17.589E-03		4.2811E+00
			-142.00		17.767E-03		4.2719E+00
			-141.00		17.881E-03		4.2555E+00
			-140.00		17.988E-03		4.2756E+00
			-136.00		18.300E-03		4.2719E+00
			-132.00		18.506E-03		4.2774E+00
			-128.00		18.652E-03		4.2756E+00
			-124.00		18.770E-03		4.2683E+00
			-120.00		18.877E-03		4.2719E+00
			-116.00		18.929E-03		4.2738E+00
			-112.00		18.988E-03		4.2793E+00
			-108.00		19.028E-03		4.2756E+00
			-104.00		19.071E-03		4.2701E+00
			-100.00		19.031E-03		4.2756E+00
			-96.00		19.051E-03		4.2738E+00
			-92.00		19.066E-03		4.2738E+00
			-88.00		19.088E-03		4.2756E+00
			-84.00		19.092E-03		4.2774E+00
			-80.00		19.130E-03		4.2683E+00
			-76.00		19.137E-03		4.2774E+00
			-72.00		19.190E-03		4.2774E+00
			-68.00		19.194E-03		4.2793E+00
			-64.00		19.188E-03		4.2847E+00
			-60.00		19.207E-03		4.2738E+00
			-56.00		19.188E-03		4.2793E+00
			-52.00		19.196E-03		4.2774E+00
			-48.00		19.208E-03		4.2774E+00
			-44.00		19.200E-03		4.2719E+00
			-40.00		19.176E-03		4.2719E+00
			-36.00		19.183E-03		4.2738E+00
			-32.00		19.105E-03		4.2738E+00
			-28.00		19.120E-03		4.2793E+00
			-24.00		19.072E-03		4.2793E+00
			-20.00		19.102E-03		4.2811E+00
			-16.00		19.079E-03		4.2628E+00
			-12.00		19.046E-03		4.2756E+00
			-8.00		19.009E-03		4.2793E+00
			-4.00		18.900E-03		4.2756E+00
			0.00		18.864E-03		4.2756E+00
			4.00		18.909E-03		4.2756E+00
			8.00		18.944E-03		4.2683E+00
			12.00		18.982E-03		4.2719E+00
			16.00		19.018E-03		4.2719E+00
			20.00		19.061E-03		4.2610E+00
			24.00		19.020E-03		4.2774E+00
			28.00		19.039E-03		4.2793E+00
			32.00		19.090E-03		4.2793E+00
			36.00		19.078E-03		4.2793E+00
			40.00		19.139E-03		4.2756E+00
			44.00		19.160E-03		4.2756E+00
			48.00		19.218E-03		4.2719E+00
			52.00		19.173E-03		4.2719E+00
			56.00		19.211E-03		4.2628E+00
			60.00		19.171E-03		4.2811E+00
			64.00		19.186E-03		4.2811E+00
			68.00		19.188E-03		4.2719E+00
			72.00		19.179E-03		4.2774E+00
			76.00		19.148E-03		4.2701E+00
			80.00		19.134E-03		4.2774E+00
			84.00		19.114E-03		4.2793E+00
			88.00		19.089E-03		4.2719E+00
			92.00		19.087E-03		4.2793E+00
			96.00		19.093E-03		4.2738E+00
			100.00		19.110E-03		4.2719E+00
			104.00		19.048E-03		4.2793E+00
			108.00		19.009E-03		4.2793E+00
			112.00		19.025E-03		4.2756E+00
			116.00		18.959E-03		4.2738E+00
			120.00		18.893E-03		4.2738E+00
			124.00		18.832E-03		4.2665E+00
			128.00		18.640E-03		4.2756E+00
			132.00		18.520E-03		4.2592E+00
			136.00		18.330E-03		4.2774E+00
			140.00		18.239E-03		4.2701E+00
			141.00		17.982E-03		4.2756E+00
			142.00		17.773E-03		4.2793E+00
			143.00		17.579E-03		4.2793E+00
			144.00		17.323E-03		4.2811E+00
			145.00		17.042E-03		4.2701E+00
			146.00		16.576E-03		4.2774E+00
			147.00		15.919E-03		4.2829E+00
			148.00		14.734E-03		4.2719E+00
			149.00		12.763E-03		4.2756E+00
			150.00		10.116E-03		4.2738E+00
			151.00		7.7324E-03		4.2774E+00
			152.00		5.9199E-03		4.2701E+00
			153.00		4.8223E-03		4.2774E+00
			154.00		4.0950E-03		4.2756E+00
			155.00		3.6228E-03		4.2719E+00
			156.00		3.2758E-03		4.2719E+00
			157.00		3.0023E-03		4.2738E+00
			158.00		2.7942E-03		4.2719E+00
			159.00		2.6263E-03		4.2774E+00
			160.00		2.4931E-03		4.2701E+00
			164.00		2.0890E-03		4.2701E+00
			168.00		1.8077E-03		4.2701E+00
			172.00		1.5996E-03		4.2665E+00
			176.00		1.4234E-03		4.2738E+00
			180.00		1.2913E-03		4.2756E+00
			184.00		1.1692E-03		4.2738E+00
			188.00		1.0616E-03		4.2738E+00
			192.00		960.31E-06		4.2719E+00
			196.00		876.54E-06		4.2719E+00
			200.00		792.44E-06		4.2738E+00
			204.00		705.42E-06		4.2756E+00
			208.00		644.81E-06		4.2811E+00
			212.00		598.32E-06		4.2719E+00
			216.00		554.87E-06		4.2610E+00
			220.00		513.90E-06		4.2774E+00
			224.00		478.04E-06		4.2774E+00
			228.00		442.38E-06		4.2756E+00
			232.00		412.14E-06		4.2793E+00
			236.00		388.91E-06		4.2719E+00
		END_DATA
	END_SCAN  2
	BEGIN_SCAN  3
		TASK_NAME=tba PDD Profiles
		PROGRAM=tbaScan
		MEAS_DATE=27-Feb-2012 17:24:03
		LINAC=A3 - L121
		MODALITY=X
		ISOCENTER=1000.00
		INPLANE_AXIS=X
		CROSSPLANE_AXIS=Y
		DEPTH_AXIS=Depth
		INPLANE_AXIS_DIR=GUN_TARGET
		CROSSPLANE_AXIS_DIR=RIGHT_LEFT
		DEPTH_AXIS_DIR=UP_DOWN
		ENERGY=10.00
		NOMINAL_DMAX=23.00
		SSD=900.00
		SCD=450.00
		WEDGE_ANGLE=0.00
		FIELD_INPLANE=300.00
		FIELD_CROSSPLANE=300.00
		FIELD_TYPE=RECTANGULAR
		GANTRY=0.00
		GANTRY_UPRIGHT_POSITION=0
		GANTRY_ROTATION=CW
		COLL_ANGLE=90.00
		COLL_OFFSET_INPLANE=0.00
		COLL_OFFSET_CROSSPLANE=0.00
		SCAN_DEVICE=MP3
		SCAN_DEVICE_SETUP=BARA_GUN_TARGET
		ELECTROMETER=TANDEM
		RANGE_FIELD=MEDIUM
		RANGE_REFERENCE=AUTO
		DETECTOR=LIQUID
		DETECTOR_RADIUS=0.00
		DETECTOR_NAME=PTW 31018 MicroLion
		DETECTOR_SN=00149
		DETECTOR_CALIBRATION=2130000.00
		DETECTOR_IS_CALIBRATED=1
		DETECTOR_REFERENCE=THIMBLE_CHAMBER
		DETECTOR_REFERENCE_SUBCODE=SEMIFLEX
		DETECTOR_REFERENCE_RADIUS=2.75
		DETECTOR_REFERENCE_NAME=PTW 31010 Semiflex
		DETECTOR_REFERENCE_SN=1726
		DETECTOR_REFERENCE_IS_CALIBRATED=1
		DETECTOR_REFERENCE_CALIBRATION=304400000.00
		DETECTOR_HV=800.0
		DETECTOR_REFERENCE_HV=350.0
		REF_FIELD_DEPTH=100.00
		REF_FIELD_DEFINED=ISOCENTER
		REF_FIELD_INPLANE=100.00
		REF_FIELD_CROSSPLANE=100.00
		REF_SCAN_POSITIONS=-150.00;-148.00;-144.00;-140.00;-136.00;-132.00;-128.00;-124.00;-120.00;-116.00;-112.00;-108.00;-104.00;-100.00;-96.00;-92.00;-88.00;-84.00;-80.00;-76.00;-72.00;-68.00;-64.00;-60.00;-59.00;-58.00;-57.00;-56.00;-55.00;-54.00;-53.00;-52.00;-51.00;-50.00;-49.00;-48.00;-47.00;-46.00;-45.00;-44.00;-43.00;-42.00;-41.00;-40.00;-36.00;-32.00;-28.00;-24.00;-20.00;-16.00;-12.00;-8.00;-4.00;0.00;4.00;8.00;12.00;16.00;20.00;24.00;28.00;32.00;36.00;40.00;41.00;42.00;43.00;44.00;45.00;46.00;47.00;48.00;49.00;50.00;51.00;52.00;53.00;54.00;55.00;56.00;57.00;58.00;59.00;60.00;64.00;68.00;72.00;76.00;80.00;84.00;88.00;92.00;96.00;100.00;104.00;108.00;112.00;116.00;120.00;124.00;128.00;132.00;136.00;140.00;144.00;148.00;150.00;
		REF_OVERSCAN_FACTOR=1.00
		SCAN_CURVETYPE=INPLANE_PROFILE
		SCAN_DEPTH=100.00
		SCAN_OFFAXIS_INPLANE=0.00
		SCAN_OFFAXIS_CROSSPLANE=0.00
		SCAN_ANGLE=0.00
		SCAN_DIAGONAL=NOT_DIAGONAL
		SCAN_DIRECTION=POSITIVE
		MEAS_MEDIUM=WATER
		MEAS_PRESET=REFERENCE_DOSEMETER
		MEAS_TIME=0.300
		MEAS_UNIT=A.U.
		SCAN_SPEEDS=20.00; 50.00;40.00; 50.00;100.00; 50.00;400.00; 50.00;
		DELAY_TIMES=20.00; 0.000;150.00; 0.000;400.00; 0.000;
		INCLINATION_ANGLE=0.00
		PRESSURE=1013.25
		TEMPERATURE=20.00
		NORM_TEMPERATURE=20.00
		CORRECTION_FACTOR=1.0000
		EXPECTED_MAX_DOSE_RATE=6.00
		BEGIN_DATA
			-244.00		361.25E-06		4.2099E+00
			-240.00		382.50E-06		4.2099E+00
			-236.00		404.10E-06		4.2062E+00
			-232.00		431.45E-06		4.2062E+00
			-228.00		458.99E-06		4.2044E+00
			-224.00		492.86E-06		4.2007E+00
			-220.00		528.91E-06		4.2044E+00
			-216.00		570.72E-06		4.2099E+00
			-212.00		622.06E-06		4.2117E+00
			-208.00		670.32E-06		4.2135E+00
			-204.00		730.34E-06		4.2172E+00
			-200.00		821.62E-06		4.2153E+00
			-196.00		900.44E-06		4.2153E+00
			-192.00		987.51E-06		4.2190E+00
			-188.00		1.0870E-03		4.2208E+00
			-184.00		1.2086E-03		4.2190E+00
			-180.00		1.3323E-03		4.2208E+00
			-176.00		1.4733E-03		4.2245E+00
			-172.00		1.6525E-03		4.2226E+00
			-168.00		1.8666E-03		4.2245E+00
			-164.00		2.1612E-03		4.2281E+00
			-160.00		2.6021E-03		4.2190E+00
			-159.00		2.7814E-03		4.2226E+00
			-158.00		2.9690E-03		4.2226E+00
			-157.00		3.2112E-03		4.2226E+00
			-156.00		3.5062E-03		4.2318E+00
			-155.00		3.9570E-03		4.2245E+00
			-154.00		4.5622E-03		4.2299E+00
			-153.00		5.5580E-03		4.2263E+00
			-152.00		7.1001E-03		4.2281E+00
			-151.00		9.4347E-03		4.2263E+00
			-150.00		12.011E-03		4.2263E+00
			-149.00		14.234E-03		4.2245E+00
			-148.00		15.502E-03		4.2318E+00
			-147.00		16.343E-03		4.2281E+00
			-146.00		16.784E-03		4.2336E+00
			-145.00		17.133E-03		4.2354E+00
			-144.00		17.406E-03		4.2263E+00
			-143.00		17.589E-03		4.2281E+00
			-142.00		17.755E-03		4.2245E+00
			-141.00		17.856E-03		4.2299E+00
			-140.00		17.985E-03		4.2281E+00
			-136.00		18.237E-03		4.2354E+00
			-132.00		18.430E-03		4.2299E+00
			-128.00		18.547E-03		4.2281E+00
			-124.00		18.656E-03		4.2336E+00
			-120.00		18.781E-03		4.2299E+00
			-116.00		18.855E-03		4.2336E+00
			-112.00		18.874E-03		4.2354E+00
			-108.00		18.912E-03		4.2391E+00
			-104.00		18.932E-03		4.2372E+00
			-100.00		18.951E-03		4.2336E+00
			-96.00		18.976E-03		4.2409E+00
			-92.00		18.993E-03		4.2391E+00
			-88.00		19.020E-03		4.2391E+00
			-84.00		19.017E-03		4.2372E+00
			-80.00		19.017E-03		4.2372E+00
			-76.00		19.001E-03		4.2427E+00
			-72.00		19.050E-03		4.2446E+00
			-68.00		19.069E-03		4.2409E+00
			-64.00		19.091E-03		4.2354E+00
			-60.00		19.084E-03		4.2391E+00
			-56.00		19.088E-03		4.2409E+00
			-52.00		19.089E-03		4.2372E+00
			-48.00		19.095E-03		4.2372E+00
			-44.00		19.069E-03		4.2409E+00
			-40.00		19.061E-03		4.2354E+00
			-36.00		19.056E-03		4.2446E+00
			-32.00		19.021E-03		4.2409E+00
			-28.00		19.036E-03		4.2464E+00
			-24.00		19.028E-03		4.2427E+00
			-20.00		19.078E-03		4.2391E+00
			-16.00		19.051E-03		4.2409E+00
			-12.00		19.002E-03		4.2391E+00
			-8.00		18.992E-03		4.2427E+00
			-4.00		18.974E-03		4.2427E+00
			0.00		18.985E-03		4.2464E+00
			4.00		19.046E-03		4.2427E+00
			8.00		19.165E-03		4.2391E+00
			12.00		19.225E-03		4.2372E+00
			16.00		19.308E-03		4.2427E+00
			20.00		19.297E-03		4.2446E+00
			24.00		19.354E-03		4.2446E+00
			28.00		19.381E-03		4.2446E+00
			32.00		19.466E-03		4.2464E+00
			36.00		19.437E-03		4.2482E+00
			40.00		19.471E-03		4.2500E+00
			44.00		19.519E-03		4.2427E+00
			48.00		19.541E-03		4.2446E+00
			52.00		19.538E-03		4.2464E+00
			56.00		19.521E-03		4.2391E+00
			60.00		19.526E-03		4.2464E+00
			64.00		19.575E-03		4.2372E+00
			68.00		19.536E-03		4.2482E+00
			72.00		19.555E-03		4.2409E+00
			76.00		19.537E-03		4.2427E+00
			80.00		19.491E-03		4.2391E+00
			84.00		19.447E-03		4.2427E+00
			88.00		19.452E-03		4.2391E+00
			92.00		19.406E-03		4.2464E+00
			96.00		19.424E-03		4.2391E+00
			100.00		19.385E-03		4.2464E+00
			104.00		19.392E-03		4.2409E+00
			108.00		19.332E-03		4.2482E+00
			112.00		19.332E-03		4.2409E+00
			116.00		19.253E-03		4.2482E+00
			120.00		19.182E-03		4.2427E+00
			124.00		19.047E-03		4.2500E+00
			128.00		18.946E-03		4.2482E+00
			132.00		18.792E-03		4.2464E+00
			136.00		18.570E-03		4.2482E+00
			140.00		18.273E-03		4.2482E+00
			141.00		18.108E-03		4.2446E+00
			142.00		18.000E-03		4.2409E+00
			143.00		17.817E-03		4.2464E+00
			144.00		17.516E-03		4.2427E+00
			145.00		17.201E-03		4.2409E+00
			146.00		16.667E-03		4.2427E+00
			147.00		15.895E-03		4.2427E+00
			148.00		14.416E-03		4.2446E+00
			149.00		12.156E-03		4.2391E+00
			150.00		9.4182E-03		4.2446E+00
			151.00		7.1691E-03		4.2409E+00
			152.00		5.5937E-03		4.2427E+00
			153.00		4.6268E-03		4.2427E+00
			154.00		3.9912E-03		4.2427E+00
			155.00		3.5514E-03		4.2464E+00
			156.00		3.2291E-03		4.2427E+00
			157.00		2.9813E-03		4.2482E+00
			158.00		2.7797E-03		4.2482E+00
			159.00		2.6082E-03		4.2482E+00
			160.00		2.4720E-03		4.2446E+00
			164.00		2.0830E-03		4.2519E+00
			168.00		1.8080E-03		4.2482E+00
			172.00		1.6064E-03		4.2482E+00
			176.00		1.4320E-03		4.2482E+00
			180.00		1.2892E-03		4.2427E+00
			184.00		1.1587E-03		4.2464E+00
			188.00		1.0624E-03		4.2464E+00
			192.00		959.66E-06		4.2482E+00
			196.00		876.93E-06		4.2409E+00
			200.00		788.18E-06		4.2482E+00
			204.00		710.58E-06		4.2446E+00
			208.00		650.08E-06		4.2464E+00
			212.00		598.66E-06		4.2482E+00
			216.00		556.54E-06		4.2482E+00
			220.00		517.88E-06		4.2446E+00
			224.00		481.33E-06		4.2482E+00
			228.00		448.05E-06		4.2500E+00
			232.00		418.34E-06		4.2464E+00
			236.00		390.91E-06		4.2500E+00
		END_DATA
	END_SCAN  3
END_SCAN_DATA
