BEGIN_SCAN_DATA
	FORMAT=CC-Export V1.9                  
	FILE_CREATION_DATE=29-Feb-2012 15:24:59
	LAST_MODIFIED=29-Feb-2012 15:24:59
	BEGIN_SCAN  1
		TASK_NAME=tba PDD Profiles
		PROGRAM=tbaScan
		COMMENT=FFF Acceptance - 7 MV
		MEAS_DATE=29-Feb-2012 15:15:32
		LINAC=selftest
		MODALITY=X
		ISOCENTER=1000.00
		INPLANE_AXIS=X
		CROSSPLANE_AXIS=Y
		DEPTH_AXIS=Depth
		INPLANE_AXIS_DIR=GUN_TARGET
		CROSSPLANE_AXIS_DIR=RIGHT_LEFT
		DEPTH_AXIS_DIR=UP_DOWN
		ENERGY=7.00
		NOMINAL_DMAX=15.00
		SSD=900.00
		SCD=450.00
		BLOCK=0
		WEDGE_ANGLE=0.00
		FIELD_INPLANE=300.00
		FIELD_CROSSPLANE=300.00
		FIELD_TYPE=RECTANGULAR
		GANTRY=0.00
		GANTRY_UPRIGHT_POSITION=0
		GANTRY_ROTATION=CW
		COLL_ANGLE=90.00
		COLL_OFFSET_INPLANE=0.00
		COLL_OFFSET_CROSSPLANE=0.00
		SCAN_DEVICE=MP3
		SCAN_DEVICE_SETUP=BARA_GUN_TARGET
		ELECTROMETER=TANDEM
		RANGE_FIELD=MEDIUM
		RANGE_REFERENCE=AUTO
		DETECTOR=THIMBLE_CHAMBER
		DETECTOR_SUBCODE=SEMIFLEX
		DETECTOR_RADIUS=2.75
		DETECTOR_NAME=PTW 31010 Semiflex
		DETECTOR_SN=2107
		DETECTOR_CALIBRATION=304700000.00
		DETECTOR_IS_CALIBRATED=1
		DETECTOR_REFERENCE=THIMBLE_CHAMBER
		DETECTOR_REFERENCE_SUBCODE=SEMIFLEX
		DETECTOR_REFERENCE_RADIUS=2.75
		DETECTOR_REFERENCE_NAME=PTW 31010 Semiflex
		DETECTOR_REFERENCE_SN=1726
		DETECTOR_REFERENCE_IS_CALIBRATED=1
		DETECTOR_REFERENCE_CALIBRATION=304400000.00
		DETECTOR_HV=0.0
		DETECTOR_REFERENCE_HV=350.0
		REF_FIELD_DEPTH=100.00
		REF_FIELD_DEFINED=ISOCENTER
		REF_FIELD_INPLANE=100.00
		REF_FIELD_CROSSPLANE=100.00
		REF_SCAN_POSITIONS=-150.00;-148.00;-144.00;-140.00;-136.00;-132.00;-128.00;-124.00;-120.00;-116.00;-112.00;-108.00;-104.00;-100.00;-96.00;-92.00;-88.00;-84.00;-80.00;-76.00;-72.00;-68.00;-64.00;-60.00;-59.00;-58.00;-57.00;-56.00;-55.00;-54.00;-53.00;-52.00;-51.00;-50.00;-49.00;-48.00;-47.00;-46.00;-45.00;-44.00;-43.00;-42.00;-41.00;-40.00;-36.00;-32.00;-28.00;-24.00;-20.00;-16.00;-12.00;-8.00;-4.00;0.00;4.00;8.00;12.00;16.00;20.00;24.00;28.00;32.00;36.00;40.00;41.00;42.00;43.00;44.00;45.00;46.00;47.00;48.00;49.00;50.00;51.00;52.00;53.00;54.00;55.00;56.00;57.00;58.00;59.00;60.00;64.00;68.00;72.00;76.00;80.00;84.00;88.00;92.00;96.00;100.00;104.00;108.00;112.00;116.00;120.00;124.00;128.00;132.00;136.00;140.00;144.00;148.00;150.00;
		REF_OVERSCAN_FACTOR=1.00
		SCAN_CURVETYPE=INPLANE_PROFILE
		SCAN_DEPTH=100.00
		SCAN_OFFAXIS_INPLANE=0.00
		SCAN_OFFAXIS_CROSSPLANE=0.00
		SCAN_ANGLE=0.00
		SCAN_DIAGONAL=NOT_DIAGONAL
		SCAN_DIRECTION=POSITIVE
		MEAS_MEDIUM=WATER
		MEAS_PRESET=REFERENCE_DOSEMETER
		MEAS_TIME=0.300
		MEAS_UNIT=A.U.
		SCAN_SPEEDS=20.00; 50.00;40.00; 50.00;100.00; 50.00;400.00; 50.00;
		DELAY_TIMES=20.00; 0.000;150.00; 0.000;400.00; 0.000;
		PRESSURE=1013.25
		TEMPERATURE=20.00
		NORM_TEMPERATURE=20.00
		CORRECTION_FACTOR=1.0000
		EXPECTED_MAX_DOSE_RATE=16.00
		BEGIN_DATA
			-250.00		40.608E-03		12.741E+00
			-248.00		41.409E-03		12.759E+00
			-244.00		43.752E-03		12.745E+00
			-240.00		46.341E-03		12.743E+00
			-236.00		48.874E-03		12.681E+00
			-232.00		51.867E-03		12.725E+00
			-228.00		54.811E-03		12.708E+00
			-224.00		58.290E-03		12.734E+00
			-220.00		62.202E-03		12.726E+00
			-216.00		66.196E-03		12.732E+00
			-212.00		70.565E-03		12.721E+00
			-208.00		75.508E-03		12.735E+00
			-204.00		81.666E-03		12.715E+00
			-200.00		87.992E-03		12.715E+00
			-196.00		94.465E-03		12.657E+00
			-192.00		102.04E-03		12.721E+00
			-188.00		110.53E-03		12.735E+00
			-184.00		120.29E-03		12.706E+00
			-180.00		130.90E-03		12.737E+00
			-176.00		144.70E-03		12.723E+00
			-172.00		159.08E-03		12.734E+00
			-168.00		176.97E-03		12.737E+00
			-164.00		199.30E-03		12.650E+00
			-160.00		229.77E-03		12.675E+00
			-159.00		239.36E-03		12.725E+00
			-158.00		251.43E-03		12.725E+00
			-157.00		265.79E-03		12.704E+00
			-156.00		284.03E-03		12.732E+00
			-155.00		306.30E-03		12.719E+00
			-154.00		339.12E-03		12.728E+00
			-153.00		385.62E-03		12.620E+00
			-152.00		451.26E-03		12.717E+00
			-151.00		561.43E-03		12.735E+00
			-150.00		743.93E-03		12.745E+00
			-149.00		991.38E-03		12.750E+00
			-148.00		1.2310E+00		12.712E+00
			-147.00		1.3641E+00		12.734E+00
			-146.00		1.4323E+00		12.754E+00
			-145.00		1.4765E+00		12.741E+00
			-144.00		1.5089E+00		12.710E+00
			-143.00		1.5330E+00		12.748E+00
			-142.00		1.5515E+00		12.726E+00
			-141.00		1.5723E+00		12.732E+00
			-140.00		1.5879E+00		12.734E+00
			-136.00		1.6391E+00		12.737E+00
			-132.00		1.6832E+00		12.708E+00
			-128.00		1.7192E+00		12.750E+00
			-124.00		1.7610E+00		12.748E+00
			-120.00		1.8007E+00		12.732E+00
			-116.00		1.8378E+00		12.743E+00
			-112.00		1.8759E+00		12.728E+00
			-108.00		1.9090E+00		12.737E+00
			-104.00		1.9437E+00		12.735E+00
			-100.00		1.9827E+00		12.715E+00
			-96.00		2.0226E+00		12.735E+00
			-92.00		2.0586E+00		12.717E+00
			-88.00		2.0952E+00		12.704E+00
			-84.00		2.1346E+00		12.735E+00
			-80.00		2.1702E+00		12.712E+00
			-76.00		2.2116E+00		12.681E+00
			-72.00		2.2498E+00		12.717E+00
			-68.00		2.2879E+00		12.673E+00
			-64.00		2.3283E+00		12.728E+00
			-60.00		2.3659E+00		12.750E+00
			-56.00		2.4093E+00		12.566E+00
			-52.00		2.4456E+00		12.708E+00
			-48.00		2.4817E+00		12.752E+00
			-44.00		2.5179E+00		12.757E+00
			-40.00		2.5584E+00		12.741E+00
			-36.00		2.5907E+00		12.745E+00
			-32.00		2.6248E+00		12.704E+00
			-28.00		2.6550E+00		12.677E+00
			-24.00		2.6812E+00		12.710E+00
			-20.00		2.7054E+00		12.725E+00
			-16.00		2.7270E+00		12.745E+00
			-12.00		2.7417E+00		12.723E+00
			-8.00		2.7534E+00		12.748E+00
			-4.00		2.7622E+00		12.741E+00
			0.00		2.7594E+00		12.754E+00
			4.00		2.7549E+00		12.748E+00
			8.00		2.7490E+00		12.756E+00
			12.00		2.7324E+00		12.739E+00
			16.00		2.7169E+00		12.725E+00
			20.00		2.6926E+00		12.737E+00
			24.00		2.6701E+00		12.325E+00
			28.00		2.6368E+00		12.757E+00
			32.00		2.6053E+00		12.757E+00
			36.00		2.5733E+00		12.710E+00
			40.00		2.5358E+00		12.754E+00
			44.00		2.5043E+00		12.754E+00
			48.00		2.4631E+00		12.759E+00
			52.00		2.4277E+00		12.712E+00
			56.00		2.3862E+00		12.741E+00
			60.00		2.3472E+00		12.750E+00
			64.00		2.3088E+00		12.741E+00
			68.00		2.2729E+00		12.725E+00
			72.00		2.2297E+00		12.717E+00
			76.00		2.1995E+00		12.717E+00
			80.00		2.1555E+00		12.697E+00
			84.00		2.1202E+00		12.745E+00
			88.00		2.0856E+00		12.684E+00
			92.00		2.0439E+00		12.719E+00
			96.00		2.0097E+00		12.717E+00
			100.00		1.9695E+00		12.735E+00
			104.00		1.9366E+00		12.745E+00
			108.00		1.8972E+00		12.739E+00
			112.00		1.8603E+00		12.726E+00
			116.00		1.8287E+00		12.726E+00
			120.00		1.7902E+00		12.725E+00
			124.00		1.7530E+00		12.734E+00
			128.00		1.7140E+00		12.725E+00
			132.00		1.6731E+00		12.719E+00
			136.00		1.6269E+00		12.653E+00
			140.00		1.5853E+00		12.708E+00
			141.00		1.5718E+00		12.690E+00
			142.00		1.5540E+00		12.611E+00
			143.00		1.5357E+00		12.726E+00
			144.00		1.5179E+00		12.659E+00
			145.00		1.4902E+00		12.710E+00
			146.00		1.4625E+00		12.688E+00
			147.00		1.4143E+00		12.677E+00
			148.00		1.3347E+00		12.715E+00
			149.00		1.1967E+00		12.600E+00
			150.00		971.68E-03		12.726E+00
			151.00		711.62E-03		12.725E+00
			152.00		547.87E-03		12.600E+00
			153.00		439.63E-03		12.675E+00
			154.00		375.28E-03		12.710E+00
			155.00		331.84E-03		12.726E+00
			156.00		302.81E-03		12.522E+00
			157.00		280.18E-03		12.672E+00
			158.00		262.69E-03		12.673E+00
			159.00		249.53E-03		12.734E+00
			160.00		237.56E-03		12.721E+00
			164.00		204.17E-03		12.697E+00
			168.00		180.65E-03		12.741E+00
			172.00		161.71E-03		12.730E+00
			176.00		145.95E-03		12.726E+00
			180.00		132.42E-03		12.688E+00
			184.00		120.88E-03		12.704E+00
			188.00		111.78E-03		12.725E+00
			192.00		103.13E-03		12.728E+00
			196.00		96.600E-03		12.699E+00
			200.00		89.808E-03		12.703E+00
			204.00		83.920E-03		12.679E+00
			208.00		77.928E-03		12.715E+00
			212.00		73.134E-03		12.699E+00
			216.00		68.403E-03		12.695E+00
			220.00		64.162E-03		12.708E+00
			224.00		60.335E-03		12.726E+00
			228.00		56.871E-03		12.730E+00
			232.00		53.583E-03		12.726E+00
			236.00		50.861E-03		12.725E+00
			240.00		48.221E-03		12.701E+00
			244.00		45.532E-03		12.728E+00
			248.00		43.496E-03		12.735E+00
			250.00		41.672E-03		12.679E+00
		END_DATA
	END_SCAN  1
END_SCAN_DATA
