BEGIN_SCAN_DATA
	FORMAT=CC-Export V1.9                  
	FILE_CREATION_DATE=29-Feb-2012 14:35:17
	LAST_MODIFIED=29-Feb-2012 14:35:17
	BEGIN_SCAN  1
		TASK_NAME=tba PDD Profiles
		PROGRAM=tbaScan
		COMMENT=FFF Acceptance - 7 MV
		MEAS_DATE=29-Feb-2012 14:33:28
		LINAC=A3 - L121
		MODALITY=X
		ISOCENTER=1000.00
		INPLANE_AXIS=X
		CROSSPLANE_AXIS=Y
		DEPTH_AXIS=Depth
		INPLANE_AXIS_DIR=GUN_TARGET
		CROSSPLANE_AXIS_DIR=RIGHT_LEFT
		DEPTH_AXIS_DIR=UP_DOWN
		ENERGY=7.00
		NOMINAL_DMAX=15.00
		SSD=1000.00
		SCD=450.00
		BLOCK=0
		WEDGE_ANGLE=0.00
		FIELD_INPLANE=100.00
		FIELD_CROSSPLANE=100.00
		FIELD_TYPE=RECTANGULAR
		GANTRY=0.00
		GANTRY_UPRIGHT_POSITION=0
		GANTRY_ROTATION=CW
		COLL_ANGLE=90.00
		COLL_OFFSET_INPLANE=0.00
		COLL_OFFSET_CROSSPLANE=0.00
		SCAN_DEVICE=MP3
		SCAN_DEVICE_SETUP=BARA_GUN_TARGET
		ELECTROMETER=TANDEM
		RANGE_FIELD=MEDIUM
		RANGE_REFERENCE=AUTO
		DETECTOR=THIMBLE_CHAMBER
		DETECTOR_SUBCODE=SEMIFLEX
		DETECTOR_RADIUS=2.75
		DETECTOR_NAME=PTW 31010 Semiflex
		DETECTOR_SN=2107
		DETECTOR_CALIBRATION=304700000.00
		DETECTOR_IS_CALIBRATED=1
		DETECTOR_REFERENCE=THIMBLE_CHAMBER
		DETECTOR_REFERENCE_SUBCODE=SEMIFLEX
		DETECTOR_REFERENCE_RADIUS=2.75
		DETECTOR_REFERENCE_NAME=PTW 31010 Semiflex
		DETECTOR_REFERENCE_SN=1726
		DETECTOR_REFERENCE_IS_CALIBRATED=1
		DETECTOR_REFERENCE_CALIBRATION=304400000.00
		DETECTOR_HV=0.0
		DETECTOR_REFERENCE_HV=350.0
		REF_FIELD_DEPTH=0.00
		REF_FIELD_DEFINED=ISOCENTER
		REF_FIELD_INPLANE=100.00
		REF_FIELD_CROSSPLANE=100.00
		REF_SCAN_POSITIONS=0.00;1.50;3.00;4.50;6.00;7.50;9.00;10.50;12.00;13.50;15.00;16.50;18.00;19.50;21.00;22.50;24.00;25.00;27.50;30.00;32.50;35.00;37.50;40.00;42.50;45.00;47.50;50.00;52.50;55.00;57.50;60.00;62.50;65.00;70.00;75.00;80.00;85.00;90.00;95.00;100.00;105.00;110.00;115.00;120.00;125.00;130.00;135.00;140.00;145.00;150.00;155.00;160.00;165.00;170.00;175.00;180.00;185.00;190.00;195.00;200.00;205.00;210.00;215.00;220.00;225.00;230.00;235.00;240.00;245.00;250.00;255.00;260.00;265.00;270.00;275.00;280.00;285.00;290.00;295.00;300.00;
		SCAN_CURVETYPE=PDD
		SCAN_OFFAXIS_INPLANE=0.00
		SCAN_OFFAXIS_CROSSPLANE=0.00
		SCAN_ANGLE=0.00
		SCAN_DIAGONAL=NOT_DIAGONAL
		SCAN_DIRECTION=NEGATIVE
		MEAS_MEDIUM=WATER
		MEAS_PRESET=REFERENCE_DOSEMETER
		MEAS_TIME=0.300
		MEAS_UNIT=A.U.
		SCAN_SPEEDS=20.00; 8.00;40.00; 25.00;100.00; 40.00;400.00; 50.00;
		DELAY_TIMES=20.00; 0.000;150.00; 0.000;400.00; 0.000;
		PRESSURE=1013.25
		TEMPERATURE=20.00
		NORM_TEMPERATURE=20.00
		CORRECTION_FACTOR=1.0000
		EXPECTED_MAX_DOSE_RATE=16.00
		BEGIN_DATA
			0.00		2.6303E+00		7.9028E+00
			1.50		2.6554E+00		7.9174E+00
			3.00		3.2534E+00		7.9120E+00
			4.50		3.9161E+00		7.9083E+00
			6.00		4.3022E+00		7.8955E+00
			7.50		4.5720E+00		7.9174E+00
			9.00		4.7777E+00		7.8864E+00
			10.50		4.9132E+00		7.8700E+00
			12.00		5.0015E+00		7.9138E+00
			13.50		5.0709E+00		7.9028E+00
			15.00		5.1011E+00		7.8882E+00
			16.50		5.1276E+00		7.8974E+00
			18.00		5.1290E+00		7.8809E+00
			19.50		5.1229E+00		7.9047E+00
			21.00		5.1076E+00		7.9247E+00
			22.50		5.0824E+00		7.9101E+00
			24.00		5.0651E+00		7.9010E+00
			25.00		5.0511E+00		7.9120E+00
			27.50		5.0015E+00		7.9028E+00
			30.00		4.9506E+00		7.9101E+00
			32.50		4.8985E+00		7.9010E+00
			35.00		4.8432E+00		7.9120E+00
			37.50		4.7921E+00		7.9010E+00
			40.00		4.7312E+00		7.9138E+00
			42.50		4.6790E+00		7.9083E+00
			45.00		4.6260E+00		7.9120E+00
			47.50		4.5699E+00		7.9010E+00
			50.00		4.5148E+00		7.9083E+00
			52.50		4.4596E+00		7.9120E+00
			55.00		4.4086E+00		7.8791E+00
			57.50		4.3597E+00		7.9047E+00
			60.00		4.3028E+00		7.9156E+00
			62.50		4.2532E+00		7.8919E+00
			65.00		4.1937E+00		7.9211E+00
			70.00		4.0922E+00		7.9120E+00
			75.00		3.9846E+00		7.9193E+00
			80.00		3.8878E+00		7.9047E+00
			85.00		3.7956E+00		7.8992E+00
			90.00		3.6950E+00		7.9065E+00
			95.00		3.6009E+00		7.9101E+00
			100.00		3.5044E+00		7.9193E+00
			105.00		3.4169E+00		7.8974E+00
			110.00		3.3274E+00		7.8900E+00
			115.00		3.2412E+00		7.9193E+00
			120.00		3.1533E+00		7.9138E+00
			125.00		3.0710E+00		7.8225E+00
			130.00		2.9898E+00		7.9065E+00
			135.00		2.9112E+00		7.8499E+00
			140.00		2.8306E+00		7.9120E+00
			145.00		2.7637E+00		7.8919E+00
			150.00		2.6881E+00		7.8553E+00
			155.00		2.6082E+00		7.7805E+00
			160.00		2.5442E+00		7.8900E+00
			165.00		2.4810E+00		7.8919E+00
			170.00		2.4127E+00		7.8882E+00
			175.00		2.3486E+00		7.9321E+00
			180.00		2.2877E+00		7.8827E+00
			185.00		2.2265E+00		7.9065E+00
			190.00		2.1745E+00		7.9047E+00
			195.00		2.1118E+00		7.9065E+00
			200.00		2.0596E+00		7.8736E+00
			205.00		2.0085E+00		7.7878E+00
			210.00		1.9510E+00		7.8955E+00
			215.00		1.8952E+00		7.8791E+00
			220.00		1.8492E+00		7.8133E+00
			225.00		1.8040E+00		7.8937E+00
			230.00		1.7551E+00		7.8937E+00
			235.00		1.7111E+00		7.8754E+00
			240.00		1.6614E+00		7.8261E+00
			245.00		1.6189E+00		7.8992E+00
			250.00		1.5804E+00		7.8754E+00
			255.00		1.5388E+00		7.9101E+00
			260.00		1.4963E+00		7.8882E+00
			265.00		1.4605E+00		7.8060E+00
			270.00		1.4216E+00		7.8499E+00
			275.00		1.3825E+00		7.9010E+00
			280.00		1.3507E+00		7.8773E+00
			285.00		1.3141E+00		7.8937E+00
			290.00		1.2801E+00		7.9065E+00
			295.00		1.2460E+00		7.8791E+00
			300.00		1.2184E+00		7.9028E+00
		END_DATA
	END_SCAN  1
END_SCAN_DATA
