BEGIN_SCAN_DATA
	FORMAT=CC-Export V1.9                  
	FILE_CREATION_DATE=19-Mar-2012 11:41:32
	LAST_MODIFIED=19-Mar-2012 11:41:32
	BEGIN_SCAN  1
		TASK_NAME=tba PDD Profiles
		PROGRAM=tbaScan
		COMMENT=A3 Agility - Acceptance FFF BC=47
		MEAS_DATE=19-Mar-2012 11:38:21
		LINAC=A3 - AGILITY
		MODALITY=X
		ISOCENTER=1000.00
		INPLANE_AXIS=X
		CROSSPLANE_AXIS=Y
		DEPTH_AXIS=Depth
		INPLANE_AXIS_DIR=GUN_TARGET
		CROSSPLANE_AXIS_DIR=RIGHT_LEFT
		DEPTH_AXIS_DIR=UP_DOWN
		ENERGY=7.00
		NOMINAL_DMAX=15.00
		SSD=1000.00
		SCD=450.00
		BLOCK=0
		WEDGE_ANGLE=0.00
		FIELD_INPLANE=100.00
		FIELD_CROSSPLANE=100.00
		FIELD_TYPE=RECTANGULAR
		GANTRY=0.00
		GANTRY_UPRIGHT_POSITION=0
		GANTRY_ROTATION=CW
		COLL_ANGLE=0.00
		COLL_OFFSET_INPLANE=0.00
		COLL_OFFSET_CROSSPLANE=0.00
		SCAN_DEVICE=MP3
		SCAN_DEVICE_SETUP=BARA_GUN_TARGET
		ELECTROMETER=TANDEM
		RANGE_FIELD=MEDIUM
		RANGE_REFERENCE=AUTO
		DETECTOR=LIQUID
		DETECTOR_RADIUS=0.00
		DETECTOR_NAME=PTW 31018 MicroLion
		DETECTOR_SN=00149
		DETECTOR_CALIBRATION=2130000.00
		DETECTOR_IS_CALIBRATED=1
		DETECTOR_REFERENCE=THIMBLE_CHAMBER
		DETECTOR_REFERENCE_SUBCODE=SEMIFLEX
		DETECTOR_REFERENCE_RADIUS=2.75
		DETECTOR_REFERENCE_NAME=PTW 31010 Semiflex
		DETECTOR_REFERENCE_SN=2108
		DETECTOR_REFERENCE_IS_CALIBRATED=1
		DETECTOR_REFERENCE_CALIBRATION=312400000.00
		DETECTOR_HV=800.0
		DETECTOR_REFERENCE_HV=350.0
		REF_FIELD_DEPTH=0.00
		REF_FIELD_DEFINED=ISOCENTER
		REF_FIELD_INPLANE=100.00
		REF_FIELD_CROSSPLANE=100.00
		REF_SCAN_POSITIONS=0.00;1.50;3.00;4.50;6.00;7.50;9.00;10.50;12.00;13.50;15.00;16.50;18.00;19.50;21.00;22.50;24.00;25.00;27.50;30.00;32.50;35.00;37.50;40.00;42.50;45.00;47.50;50.00;52.50;55.00;57.50;60.00;62.50;65.00;70.00;75.00;80.00;85.00;90.00;95.00;100.00;105.00;110.00;115.00;120.00;125.00;130.00;135.00;140.00;145.00;150.00;155.00;160.00;165.00;170.00;175.00;180.00;185.00;190.00;195.00;200.00;205.00;210.00;215.00;220.00;225.00;230.00;235.00;240.00;245.00;250.00;255.00;260.00;265.00;270.00;275.00;280.00;285.00;290.00;295.00;300.00;
		SCAN_CURVETYPE=PDD
		SCAN_OFFAXIS_INPLANE=0.00
		SCAN_OFFAXIS_CROSSPLANE=0.00
		SCAN_ANGLE=0.00
		SCAN_DIAGONAL=NOT_DIAGONAL
		SCAN_DIRECTION=NEGATIVE
		MEAS_MEDIUM=WATER
		MEAS_PRESET=REFERENCE_DOSEMETER
		MEAS_TIME=0.300
		MEAS_UNIT=A.U.
		SCAN_SPEEDS=20.00; 8.00;40.00; 25.00;100.00; 40.00;400.00; 50.00;
		DELAY_TIMES=20.00; 0.000;150.00; 0.000;400.00; 0.000;
		PRESSURE=1013.25
		TEMPERATURE=20.00
		NORM_TEMPERATURE=20.00
		CORRECTION_FACTOR=1.0000
		EXPECTED_MAX_DOSE_RATE=1.00
		BEGIN_DATA
			0.00		16.904E-03		8.8153E+00
			1.50		16.533E-03		8.7966E+00
			3.00		22.040E-03		8.8022E+00
			4.50		25.418E-03		8.8041E+00
			6.00		27.499E-03		8.8116E+00
			7.50		29.048E-03		8.7816E+00
			9.00		30.135E-03		8.8041E+00
			10.50		30.806E-03		8.8116E+00
			12.00		31.308E-03		8.7928E+00
			13.50		31.629E-03		8.8003E+00
			15.00		31.777E-03		8.7834E+00
			16.50		31.834E-03		8.8041E+00
			18.00		31.829E-03		8.7853E+00
			19.50		31.771E-03		8.7853E+00
			21.00		31.627E-03		8.7928E+00
			22.50		31.482E-03		8.8172E+00
			24.00		31.347E-03		8.8022E+00
			25.00		31.234E-03		8.7891E+00
			27.50		30.924E-03		8.7984E+00
			30.00		30.602E-03		8.7741E+00
			32.50		30.251E-03		8.8041E+00
			35.00		29.927E-03		8.8097E+00
			37.50		29.604E-03		8.8022E+00
			40.00		29.212E-03		8.7891E+00
			42.50		28.880E-03		8.7797E+00
			45.00		28.563E-03		8.7966E+00
			47.50		28.228E-03		8.8059E+00
			50.00		27.862E-03		8.8022E+00
			52.50		27.566E-03		8.8041E+00
			55.00		27.229E-03		8.8191E+00
			57.50		26.855E-03		8.8041E+00
			60.00		26.548E-03		8.7759E+00
			62.50		26.214E-03		8.7853E+00
			65.00		25.862E-03		8.7666E+00
			70.00		25.237E-03		8.7909E+00
			75.00		24.615E-03		8.8003E+00
			80.00		23.975E-03		8.7741E+00
			85.00		23.393E-03		8.7628E+00
			90.00		22.747E-03		8.7984E+00
			95.00		22.166E-03		8.8041E+00
			100.00		21.613E-03		8.7928E+00
			105.00		21.011E-03		8.7891E+00
			110.00		20.456E-03		8.7778E+00
			115.00		19.912E-03		8.7928E+00
			120.00		19.399E-03		8.7816E+00
			125.00		18.920E-03		8.7947E+00
			130.00		18.356E-03		8.8003E+00
			135.00		17.887E-03		8.8097E+00
			140.00		17.416E-03		8.7909E+00
			145.00		16.962E-03		8.7928E+00
			150.00		16.507E-03		8.7797E+00
			155.00		16.044E-03		8.7778E+00
			160.00		15.619E-03		8.7797E+00
			165.00		15.198E-03		8.7872E+00
			170.00		14.841E-03		8.7834E+00
			175.00		14.432E-03		8.7703E+00
			180.00		14.045E-03		8.7628E+00
			185.00		13.673E-03		8.7872E+00
			190.00		13.302E-03		8.7891E+00
			195.00		12.949E-03		8.7909E+00
			200.00		12.613E-03		8.7553E+00
			205.00		12.277E-03		8.7891E+00
			210.00		11.937E-03		8.7684E+00
			215.00		11.627E-03		8.7891E+00
			220.00		11.303E-03		8.7891E+00
			225.00		10.995E-03		8.7684E+00
			230.00		10.729E-03		8.7347E+00
			235.00		10.451E-03		8.7628E+00
			240.00		10.159E-03		8.7178E+00
			245.00		9.8952E-03		8.6972E+00
			250.00		9.6344E-03		8.7947E+00
			255.00		9.3695E-03		8.7460E+00
			260.00		9.1344E-03		8.6241E+00
			265.00		8.9011E-03		8.7741E+00
			270.00		8.6615E-03		8.7703E+00
			275.00		8.4564E-03		8.7216E+00
			280.00		8.2177E-03		8.7666E+00
			285.00		8.0068E-03		8.7628E+00
			290.00		7.8107E-03		8.7684E+00
			295.00		7.5991E-03		8.7722E+00
			300.00		7.3992E-03		8.7328E+00
		END_DATA
	END_SCAN  1
END_SCAN_DATA
