:MSR 	1	 # No. of measurement in file
:SYS BDS 0 # Beam Data Scanner System
#
# RFA300 ASCII Measurement Dump ( BDS format )
#
# Measurement number 	1
#
%VNR 1.0
%MOD 	RAT
%TYP 	SCN 
%SCN 	DPT 
%FLD 	ION 
%DAT 	12-09-2011 
%TIM 	13:53:07 
%FSZ 	100	100
%BMT 	PHO	    6.0
%SSD 	1000
%BUP 	0
%BRD 	1000
%FSH 	-1
%ASC 	0
%WEG 	0
%GPO 	0
%CPO 	0
%MEA 	1
%PRD 	0
%PTS 	141
%STS 	    0.0	    0.0	  160.0 # Start Scan values in mm ( X , Y , Z )
%EDS 	    0.0	    0.0	  -10.0 # End Scan values in mm ( X , Y , Z )
#
#	  X      Y      Z     Dose
#
= 	    0.0	    0.0	  160.0	   49.8
= 	    0.0	    0.0	  159.0	   50.0
= 	    0.0	    0.0	  157.1	   50.5
= 	    0.0	    0.0	  155.4	   51.0
= 	    0.0	    0.0	  154.4	   51.1
= 	    0.0	    0.0	  153.2	   51.5
= 	    0.0	    0.0	  152.0	   51.9
= 	    0.0	    0.0	  150.8	   52.2
= 	    0.0	    0.0	  149.6	   52.4
= 	    0.0	    0.0	  148.4	   53.0
= 	    0.0	    0.0	  147.2	   53.3
= 	    0.0	    0.0	  146.0	   53.6
= 	    0.0	    0.0	  144.7	   53.9
= 	    0.0	    0.0	  143.5	   54.4
= 	    0.0	    0.0	  142.3	   54.8
= 	    0.0	    0.0	  141.1	   54.9
= 	    0.0	    0.0	  139.8	   55.2
= 	    0.0	    0.0	  138.6	   55.8
= 	    0.0	    0.0	  137.4	   56.1
= 	    0.0	    0.0	  136.2	   56.4
= 	    0.0	    0.0	  134.9	   56.6
= 	    0.0	    0.0	  133.7	   56.9
= 	    0.0	    0.0	  132.6	   57.5
= 	    0.0	    0.0	  131.3	   57.7
= 	    0.0	    0.0	  130.1	   58.1
= 	    0.0	    0.0	  128.9	   58.4
= 	    0.0	    0.0	  127.7	   58.8
= 	    0.0	    0.0	  126.4	   59.5
= 	    0.0	    0.0	  125.2	   59.5
= 	    0.0	    0.0	  124.0	   60.2
= 	    0.0	    0.0	  122.8	   60.3
= 	    0.0	    0.0	  121.6	   60.9
= 	    0.0	    0.0	  120.4	   61.0
= 	    0.0	    0.0	  119.1	   61.6
= 	    0.0	    0.0	  117.9	   62.0
= 	    0.0	    0.0	  116.7	   62.5
= 	    0.0	    0.0	  115.5	   63.0
= 	    0.0	    0.0	  114.3	   63.1
= 	    0.0	    0.0	  113.0	   63.5
= 	    0.0	    0.0	  111.8	   64.1
= 	    0.0	    0.0	  110.5	   64.3
= 	    0.0	    0.0	  109.3	   64.9
= 	    0.0	    0.0	  108.1	   65.3
= 	    0.0	    0.0	  106.9	   65.5
= 	    0.0	    0.0	  105.7	   66.1
= 	    0.0	    0.0	  104.5	   66.3
= 	    0.0	    0.0	  103.3	   66.7
= 	    0.0	    0.0	  102.0	   67.2
= 	    0.0	    0.0	  100.8	   67.8
= 	    0.0	    0.0	   99.6	   68.2
= 	    0.0	    0.0	   98.4	   68.5
= 	    0.0	    0.0	   97.2	   69.1
= 	    0.0	    0.0	   95.9	   69.6
= 	    0.0	    0.0	   94.7	   69.8
= 	    0.0	    0.0	   93.5	   70.2
= 	    0.0	    0.0	   92.2	   70.7
= 	    0.0	    0.0	   91.1	   71.4
= 	    0.0	    0.0	   89.9	   71.9
= 	    0.0	    0.0	   88.6	   71.9
= 	    0.0	    0.0	   87.4	   72.7
= 	    0.0	    0.0	   86.2	   73.1
= 	    0.0	    0.0	   84.9	   73.4
= 	    0.0	    0.0	   83.7	   73.8
= 	    0.0	    0.0	   82.5	   74.1
= 	    0.0	    0.0	   81.3	   74.9
= 	    0.0	    0.0	   80.2	   75.2
= 	    0.0	    0.0	   78.9	   75.7
= 	    0.0	    0.0	   77.6	   76.4
= 	    0.0	    0.0	   76.4	   76.5
= 	    0.0	    0.0	   75.2	   77.4
= 	    0.0	    0.0	   73.9	   77.9
= 	    0.0	    0.0	   72.7	   78.2
= 	    0.0	    0.0	   71.4	   78.4
= 	    0.0	    0.0	   70.2	   79.0
= 	    0.0	    0.0	   69.1	   79.6
= 	    0.0	    0.0	   67.9	   80.0
= 	    0.0	    0.0	   66.6	   80.2
= 	    0.0	    0.0	   65.4	   81.0
= 	    0.0	    0.0	   64.1	   81.3
= 	    0.0	    0.0	   62.9	   81.8
= 	    0.0	    0.0	   61.7	   82.3
= 	    0.0	    0.0	   60.5	   82.9
= 	    0.0	    0.0	   59.3	   83.3
= 	    0.0	    0.0	   58.1	   83.8
= 	    0.0	    0.0	   56.8	   84.2
= 	    0.0	    0.0	   55.6	   84.8
= 	    0.0	    0.0	   54.4	   85.4
= 	    0.0	    0.0	   53.2	   85.4
= 	    0.0	    0.0	   52.0	   86.2
= 	    0.0	    0.0	   50.8	   86.6
= 	    0.0	    0.0	   49.5	   87.5
= 	    0.0	    0.0	   48.3	   87.7
= 	    0.0	    0.0	   47.1	   88.3
= 	    0.0	    0.0	   45.9	   88.7
= 	    0.0	    0.0	   44.7	   89.1
= 	    0.0	    0.0	   43.4	   89.6
= 	    0.0	    0.0	   42.2	   90.4
= 	    0.0	    0.0	   41.0	   90.8
= 	    0.0	    0.0	   39.8	   91.3
= 	    0.0	    0.0	   38.5	   91.6
= 	    0.0	    0.0	   37.3	   92.1
= 	    0.0	    0.0	   36.1	   92.8
= 	    0.0	    0.0	   34.8	   93.2
= 	    0.0	    0.0	   33.6	   93.6
= 	    0.0	    0.0	   32.5	   94.2
= 	    0.0	    0.0	   31.2	   94.8
= 	    0.0	    0.0	   30.0	   95.3
= 	    0.0	    0.0	   28.8	   95.8
= 	    0.0	    0.0	   27.5	   96.3
= 	    0.0	    0.0	   26.3	   96.7
= 	    0.0	    0.0	   25.1	   97.4
= 	    0.0	    0.0	   23.8	   97.9
= 	    0.0	    0.0	   22.6	   98.1
= 	    0.0	    0.0	   21.4	   98.7
= 	    0.0	    0.0	   20.2	   99.2
= 	    0.0	    0.0	   19.0	   99.3
= 	    0.0	    0.0	   17.8	   99.7
= 	    0.0	    0.0	   16.5	   99.7
= 	    0.0	    0.0	   15.3	  100.0
= 	    0.0	    0.0	   14.1	   99.5
= 	    0.0	    0.0	   12.9	   98.9
= 	    0.0	    0.0	   11.6	   97.5
= 	    0.0	    0.0	   10.4	   96.2
= 	    0.0	    0.0	    9.2	   94.3
= 	    0.0	    0.0	    8.0	   92.0
= 	    0.0	    0.0	    6.8	   88.5
= 	    0.0	    0.0	    5.6	   82.6
= 	    0.0	    0.0	    4.3	   73.4
= 	    0.0	    0.0	    3.1	   61.6
= 	    0.0	    0.0	    1.9	   52.6
= 	    0.0	    0.0	    0.7	   47.7
= 	    0.0	    0.0	   -0.6	   44.9
= 	    0.0	    0.0	   -1.8	   43.5
= 	    0.0	    0.0	   -3.0	   42.5
= 	    0.0	    0.0	   -4.1	   42.0
= 	    0.0	    0.0	   -5.4	   41.7
= 	    0.0	    0.0	   -6.6	   41.6
= 	    0.0	    0.0	   -7.7	   41.5
= 	    0.0	    0.0	   -9.0	   41.6
= 	    0.0	    0.0	   -9.6	   41.6
= 	    0.0	    0.0	  -10.0	   41.6
:EOM  # End of Measurement
:EOF # End of File
