BEGIN_SCAN_DATA
	FORMAT=CC-Export V1.9                  
	FILE_CREATION_DATE=07-Oct-2010 13:54:23
	LAST_MODIFIED=07-Oct-2010 13:54:23
	BEGIN_SCAN  1
		TASK_NAME=MODE_INTERVAL
		PROGRAM=BeamAdjust 1.2
		MEAS_DATE=07-Oct-2010 13:54:23
		LINAC=A4
		MODALITY=X
		INPLANE_AXIS_DIR=TARGET_GUN
		CROSSPLANE_AXIS_DIR=LEFT_RIGHT
		DEPTH_AXIS_DIR=UP_DOWN
		ENERGY=6.00
		SSD=950.00
		WEDGE=None
		FIELD_INPLANE=100.00
		FIELD_CROSSPLANE=100.00
		FIELD_TYPE=RECTANGULAR
		GANTRY=0.00
		GANTRY_UPRIGHT_POSITION=0
		GANTRY_ROTATION=CW
		COLL_ANGLE=90.00
		COLL_OFFSET_INPLANE=0.00
		COLL_OFFSET_CROSSPLANE=0.00
		SCAN_DEVICE=STARCHECK
		ELECTROMETER=2D_ARRAY_INTERFACE
		DETECTOR=STARCHECK
		SCAN_CURVETYPE=CROSSPLANE_PROFILE
		SCAN_DEPTH=0.00
		SCAN_OFFAXIS_INPLANE=-130.00
		SCAN_ANGLE=0.00
		SCAN_DIAGONAL=NOT_DIAGONAL
		MEAS_PRESET=TIME_PRESET
		MEAS_TIME=10.000
		MEAS_UNIT=GY
		PRESSURE=1013.25
		TEMPERATURE=20.00
		NORM_TEMPERATURE=20.00
		CORRECTION_FACTOR=1.0000
		CORRECTIONS=AIR_DENSITY_CORR;
		BEGIN_DATA
			-130.00		2.6931E-03
			-80.00		4.4824E-03
			-40.00		7.3373E-03
			40.00		7.1237E-03
			80.00		4.1903E-03
			130.00		2.0272E-03
		END_DATA
	END_SCAN  1
	BEGIN_SCAN  2
		TASK_NAME=MODE_INTERVAL
		PROGRAM=BeamAdjust 1.2
		MEAS_DATE=07-Oct-2010 13:54:23
		LINAC=A4
		MODALITY=X
		INPLANE_AXIS_DIR=TARGET_GUN
		CROSSPLANE_AXIS_DIR=LEFT_RIGHT
		DEPTH_AXIS_DIR=UP_DOWN
		ENERGY=6.00
		SSD=950.00
		WEDGE=None
		FIELD_INPLANE=100.00
		FIELD_CROSSPLANE=100.00
		FIELD_TYPE=RECTANGULAR
		GANTRY=0.00
		GANTRY_UPRIGHT_POSITION=0
		GANTRY_ROTATION=CW
		COLL_ANGLE=90.00
		COLL_OFFSET_INPLANE=0.00
		COLL_OFFSET_CROSSPLANE=0.00
		SCAN_DEVICE=STARCHECK
		ELECTROMETER=2D_ARRAY_INTERFACE
		DETECTOR=STARCHECK
		SCAN_CURVETYPE=CROSSPLANE_PROFILE
		SCAN_DEPTH=0.00
		SCAN_OFFAXIS_INPLANE=-100.00
		SCAN_ANGLE=0.00
		SCAN_DIAGONAL=NOT_DIAGONAL
		MEAS_PRESET=TIME_PRESET
		MEAS_TIME=10.000
		MEAS_UNIT=GY
		PRESSURE=1013.25
		TEMPERATURE=20.00
		NORM_TEMPERATURE=20.00
		CORRECTION_FACTOR=1.0000
		CORRECTIONS=AIR_DENSITY_CORR;
		BEGIN_DATA
			-60.00		10.539E-03
			-30.00		14.371E-03
			30.00		15.347E-03
			60.00		10.108E-03
		END_DATA
	END_SCAN  2
	BEGIN_SCAN  3
		TASK_NAME=MODE_INTERVAL
		PROGRAM=BeamAdjust 1.2
		MEAS_DATE=07-Oct-2010 13:54:23
		LINAC=A4
		MODALITY=X
		INPLANE_AXIS_DIR=TARGET_GUN
		CROSSPLANE_AXIS_DIR=LEFT_RIGHT
		DEPTH_AXIS_DIR=UP_DOWN
		ENERGY=6.00
		SSD=950.00
		WEDGE=None
		FIELD_INPLANE=100.00
		FIELD_CROSSPLANE=100.00
		FIELD_TYPE=RECTANGULAR
		GANTRY=0.00
		GANTRY_UPRIGHT_POSITION=0
		GANTRY_ROTATION=CW
		COLL_ANGLE=90.00
		COLL_OFFSET_INPLANE=0.00
		COLL_OFFSET_CROSSPLANE=0.00
		SCAN_DEVICE=STARCHECK
		ELECTROMETER=2D_ARRAY_INTERFACE
		DETECTOR=STARCHECK
		SCAN_CURVETYPE=CROSSPLANE_PROFILE
		SCAN_DEPTH=0.00
		SCAN_OFFAXIS_INPLANE=-50.00
		SCAN_ANGLE=0.00
		SCAN_DIAGONAL=NOT_DIAGONAL
		MEAS_PRESET=TIME_PRESET
		MEAS_TIME=10.000
		MEAS_UNIT=GY
		PRESSURE=1013.25
		TEMPERATURE=20.00
		NORM_TEMPERATURE=20.00
		CORRECTION_FACTOR=1.0000
		CORRECTIONS=AIR_DENSITY_CORR;
		BEGIN_DATA
			-30.00		395.13E-03
			-15.00		355.55E-03
			15.00		381.97E-03
			30.00		393.70E-03
		END_DATA
	END_SCAN  3
	BEGIN_SCAN  4
		TASK_NAME=MODE_INTERVAL
		PROGRAM=BeamAdjust 1.2
		MEAS_DATE=07-Oct-2010 13:54:23
		LINAC=A4
		MODALITY=X
		INPLANE_AXIS_DIR=TARGET_GUN
		CROSSPLANE_AXIS_DIR=LEFT_RIGHT
		DEPTH_AXIS_DIR=UP_DOWN
		ENERGY=6.00
		SSD=950.00
		WEDGE=None
		FIELD_INPLANE=100.00
		FIELD_CROSSPLANE=100.00
		FIELD_TYPE=RECTANGULAR
		GANTRY=0.00
		GANTRY_UPRIGHT_POSITION=0
		GANTRY_ROTATION=CW
		COLL_ANGLE=90.00
		COLL_OFFSET_INPLANE=0.00
		COLL_OFFSET_CROSSPLANE=0.00
		SCAN_DEVICE=STARCHECK
		ELECTROMETER=2D_ARRAY_INTERFACE
		DETECTOR=STARCHECK
		SCAN_CURVETYPE=CROSSPLANE_PROFILE
		SCAN_DEPTH=0.00
		SCAN_OFFAXIS_INPLANE=0.00
		SCAN_ANGLE=0.00
		SCAN_DIAGONAL=NOT_DIAGONAL
		MEAS_PRESET=TIME_PRESET
		MEAS_TIME=10.000
		MEAS_UNIT=GY
		PRESSURE=1013.25
		TEMPERATURE=20.00
		NORM_TEMPERATURE=20.00
		CORRECTION_FACTOR=1.0000
		CORRECTIONS=AIR_DENSITY_CORR;
		BEGIN_DATA
			-126.00		6.7215E-03
			-123.00		7.5787E-03
			-120.00		8.0785E-03
			-117.00		8.5511E-03
			-114.00		9.1387E-03
			-111.00		9.6024E-03
			-108.00		10.588E-03
			-105.00		10.763E-03
			-102.00		12.093E-03
			-99.00		13.638E-03
			-96.00		14.000E-03
			-93.00		15.287E-03
			-90.00		16.543E-03
			-87.00		18.176E-03
			-84.00		20.070E-03
			-81.00		22.152E-03
			-78.00		23.941E-03
			-75.00		26.939E-03
			-72.00		29.249E-03
			-69.00		33.993E-03
			-66.00		39.172E-03
			-63.00		44.533E-03
			-60.00		53.646E-03
			-57.00		70.422E-03
			-54.00		107.36E-03
			-51.00		257.74E-03
			-48.00		538.93E-03
			-45.00		612.83E-03
			-42.00		634.32E-03
			-39.00		647.48E-03
			-36.00		653.79E-03
			-33.00		654.64E-03
			-30.00		656.17E-03
			-27.00		658.94E-03
			-24.00		661.29E-03
			-21.00		661.51E-03
			-18.00		667.35E-03
			-15.00		667.68E-03
			-12.00		666.98E-03
			-9.00		669.40E-03
			-6.00		668.36E-03
			0.00		667.17E-03
			6.00		670.93E-03
			9.00		670.29E-03
			12.00		668.06E-03
			15.00		667.18E-03
			18.00		666.13E-03
			21.00		664.33E-03
			24.00		661.09E-03
			27.00		664.79E-03
			30.00		663.28E-03
			33.00		661.35E-03
			36.00		657.88E-03
			39.00		652.38E-03
			42.00		641.71E-03
			45.00		619.46E-03
			48.00		545.52E-03
			51.00		264.73E-03
			54.00		108.55E-03
			57.00		71.019E-03
			60.00		54.425E-03
			63.00		45.479E-03
			66.00		38.752E-03
			69.00		33.619E-03
			72.00		30.443E-03
			75.00		27.217E-03
			78.00		24.109E-03
			81.00		22.084E-03
			84.00		20.015E-03
			87.00		18.177E-03
			90.00		17.123E-03
			93.00		15.299E-03
			96.00		13.751E-03
			99.00		13.058E-03
			102.00		11.773E-03
			105.00		11.211E-03
			108.00		10.618E-03
			111.00		9.5662E-03
			114.00		9.1173E-03
			117.00		8.5137E-03
			120.00		7.6739E-03
			123.00		7.3147E-03
			126.00		7.2780E-03
		END_DATA
	END_SCAN  4
	BEGIN_SCAN  5
		TASK_NAME=MODE_INTERVAL
		PROGRAM=BeamAdjust 1.2
		MEAS_DATE=07-Oct-2010 13:54:23
		LINAC=A4
		MODALITY=X
		INPLANE_AXIS_DIR=TARGET_GUN
		CROSSPLANE_AXIS_DIR=LEFT_RIGHT
		DEPTH_AXIS_DIR=UP_DOWN
		ENERGY=6.00
		SSD=950.00
		WEDGE=None
		FIELD_INPLANE=100.00
		FIELD_CROSSPLANE=100.00
		FIELD_TYPE=RECTANGULAR
		GANTRY=0.00
		GANTRY_UPRIGHT_POSITION=0
		GANTRY_ROTATION=CW
		COLL_ANGLE=90.00
		COLL_OFFSET_INPLANE=0.00
		COLL_OFFSET_CROSSPLANE=0.00
		SCAN_DEVICE=STARCHECK
		ELECTROMETER=2D_ARRAY_INTERFACE
		DETECTOR=STARCHECK
		SCAN_CURVETYPE=CROSSPLANE_PROFILE
		SCAN_DEPTH=0.00
		SCAN_OFFAXIS_INPLANE=50.00
		SCAN_ANGLE=0.00
		SCAN_DIAGONAL=NOT_DIAGONAL
		MEAS_PRESET=TIME_PRESET
		MEAS_TIME=10.000
		MEAS_UNIT=GY
		PRESSURE=1013.25
		TEMPERATURE=20.00
		NORM_TEMPERATURE=20.00
		CORRECTION_FACTOR=1.0000
		CORRECTIONS=AIR_DENSITY_CORR;
		BEGIN_DATA
			-30.00		270.06E-03
			-15.00		283.18E-03
			15.00		253.01E-03
			30.00		260.54E-03
		END_DATA
	END_SCAN  5
	BEGIN_SCAN  6
		TASK_NAME=MODE_INTERVAL
		PROGRAM=BeamAdjust 1.2
		MEAS_DATE=07-Oct-2010 13:54:23
		LINAC=A4
		MODALITY=X
		INPLANE_AXIS_DIR=TARGET_GUN
		CROSSPLANE_AXIS_DIR=LEFT_RIGHT
		DEPTH_AXIS_DIR=UP_DOWN
		ENERGY=6.00
		SSD=950.00
		WEDGE=None
		FIELD_INPLANE=100.00
		FIELD_CROSSPLANE=100.00
		FIELD_TYPE=RECTANGULAR
		GANTRY=0.00
		GANTRY_UPRIGHT_POSITION=0
		GANTRY_ROTATION=CW
		COLL_ANGLE=90.00
		COLL_OFFSET_INPLANE=0.00
		COLL_OFFSET_CROSSPLANE=0.00
		SCAN_DEVICE=STARCHECK
		ELECTROMETER=2D_ARRAY_INTERFACE
		DETECTOR=STARCHECK
		SCAN_CURVETYPE=CROSSPLANE_PROFILE
		SCAN_DEPTH=0.00
		SCAN_OFFAXIS_INPLANE=100.00
		SCAN_ANGLE=0.00
		SCAN_DIAGONAL=NOT_DIAGONAL
		MEAS_PRESET=TIME_PRESET
		MEAS_TIME=10.000
		MEAS_UNIT=GY
		PRESSURE=1013.25
		TEMPERATURE=20.00
		NORM_TEMPERATURE=20.00
		CORRECTION_FACTOR=1.0000
		CORRECTIONS=AIR_DENSITY_CORR;
		BEGIN_DATA
			-60.00		10.409E-03
			-30.00		14.919E-03
			30.00		15.231E-03
			60.00		9.2216E-03
		END_DATA
	END_SCAN  6
	BEGIN_SCAN  7
		TASK_NAME=MODE_INTERVAL
		PROGRAM=BeamAdjust 1.2
		MEAS_DATE=07-Oct-2010 13:54:23
		LINAC=A4
		MODALITY=X
		INPLANE_AXIS_DIR=TARGET_GUN
		CROSSPLANE_AXIS_DIR=LEFT_RIGHT
		DEPTH_AXIS_DIR=UP_DOWN
		ENERGY=6.00
		SSD=950.00
		WEDGE=None
		FIELD_INPLANE=100.00
		FIELD_CROSSPLANE=100.00
		FIELD_TYPE=RECTANGULAR
		GANTRY=0.00
		GANTRY_UPRIGHT_POSITION=0
		GANTRY_ROTATION=CW
		COLL_ANGLE=90.00
		COLL_OFFSET_INPLANE=0.00
		COLL_OFFSET_CROSSPLANE=0.00
		SCAN_DEVICE=STARCHECK
		ELECTROMETER=2D_ARRAY_INTERFACE
		DETECTOR=STARCHECK
		SCAN_CURVETYPE=CROSSPLANE_PROFILE
		SCAN_DEPTH=0.00
		SCAN_OFFAXIS_INPLANE=130.00
		SCAN_ANGLE=0.00
		SCAN_DIAGONAL=NOT_DIAGONAL
		MEAS_PRESET=TIME_PRESET
		MEAS_TIME=10.000
		MEAS_UNIT=GY
		PRESSURE=1013.25
		TEMPERATURE=20.00
		NORM_TEMPERATURE=20.00
		CORRECTION_FACTOR=1.0000
		CORRECTIONS=AIR_DENSITY_CORR;
		BEGIN_DATA
			-130.00		1.7588E-03
			-80.00		4.4631E-03
			-40.00		7.7012E-03
			40.00		7.5838E-03
			80.00		4.3794E-03
			130.00		2.3639E-03
		END_DATA
	END_SCAN  7
	BEGIN_SCAN  8
		TASK_NAME=MODE_INTERVAL
		PROGRAM=BeamAdjust 1.2
		MEAS_DATE=07-Oct-2010 13:54:23
		LINAC=A4
		MODALITY=X
		INPLANE_AXIS_DIR=TARGET_GUN
		CROSSPLANE_AXIS_DIR=LEFT_RIGHT
		DEPTH_AXIS_DIR=UP_DOWN
		ENERGY=6.00
		SSD=950.00
		WEDGE=None
		FIELD_INPLANE=100.00
		FIELD_CROSSPLANE=100.00
		FIELD_TYPE=RECTANGULAR
		GANTRY=0.00
		GANTRY_UPRIGHT_POSITION=0
		GANTRY_ROTATION=CW
		COLL_ANGLE=90.00
		COLL_OFFSET_INPLANE=0.00
		COLL_OFFSET_CROSSPLANE=0.00
		SCAN_DEVICE=STARCHECK
		ELECTROMETER=2D_ARRAY_INTERFACE
		DETECTOR=STARCHECK
		SCAN_CURVETYPE=INPLANE_PROFILE
		SCAN_DEPTH=0.00
		SCAN_OFFAXIS_CROSSPLANE=-130.00
		SCAN_ANGLE=0.00
		SCAN_DIAGONAL=NOT_DIAGONAL
		MEAS_PRESET=TIME_PRESET
		MEAS_TIME=10.000
		MEAS_UNIT=GY
		PRESSURE=1013.25
		TEMPERATURE=20.00
		NORM_TEMPERATURE=20.00
		CORRECTION_FACTOR=1.0000
		CORRECTIONS=AIR_DENSITY_CORR;
		BEGIN_DATA
			-130.00		2.6931E-03
			-125.00		2.6947E-03
			-120.00		3.2460E-03
			-115.00		3.2031E-03
			-110.00		3.9494E-03
			-105.00		3.5636E-03
			-100.00		3.8353E-03
			-95.00		4.6471E-03
			-90.00		4.5637E-03
			-85.00		4.4327E-03
			-80.00		4.5575E-03
			-75.00		4.8834E-03
			-70.00		4.8808E-03
			-65.00		5.4281E-03
			-60.00		5.0070E-03
			-55.00		6.0624E-03
			-50.00		4.2300E-03
			-45.00		4.8006E-03
			-40.00		5.5282E-03
			-35.00		5.3701E-03
			-30.00		5.7748E-03
			-25.00		5.5509E-03
			-20.00		5.4751E-03
			-15.00		5.1698E-03
			-10.00		5.7774E-03
			-5.00		6.0936E-03
			0.00		6.3689E-03
			5.00		6.2358E-03
			10.00		5.9011E-03
			15.00		5.6977E-03
			20.00		5.4649E-03
			25.00		5.4721E-03
			30.00		6.5098E-03
			35.00		5.7356E-03
			40.00		5.1131E-03
			45.00		5.2925E-03
			50.00		4.9923E-03
			55.00		4.6682E-03
			60.00		4.5345E-03
			65.00		3.9942E-03
			70.00		4.2524E-03
			75.00		3.8231E-03
			80.00		4.1257E-03
			85.00		4.0019E-03
			90.00		3.6451E-03
			95.00		3.5735E-03
			100.00		3.8690E-03
			105.00		2.9031E-03
			110.00		2.9049E-03
			115.00		2.4361E-03
			120.00		2.5498E-03
			125.00		2.9067E-03
			130.00		1.7588E-03
		END_DATA
	END_SCAN  8
	BEGIN_SCAN  9
		TASK_NAME=MODE_INTERVAL
		PROGRAM=BeamAdjust 1.2
		MEAS_DATE=07-Oct-2010 13:54:23
		LINAC=A4
		MODALITY=X
		INPLANE_AXIS_DIR=TARGET_GUN
		CROSSPLANE_AXIS_DIR=LEFT_RIGHT
		DEPTH_AXIS_DIR=UP_DOWN
		ENERGY=6.00
		SSD=950.00
		WEDGE=None
		FIELD_INPLANE=100.00
		FIELD_CROSSPLANE=100.00
		FIELD_TYPE=RECTANGULAR
		GANTRY=0.00
		GANTRY_UPRIGHT_POSITION=0
		GANTRY_ROTATION=CW
		COLL_ANGLE=90.00
		COLL_OFFSET_INPLANE=0.00
		COLL_OFFSET_CROSSPLANE=0.00
		SCAN_DEVICE=STARCHECK
		ELECTROMETER=2D_ARRAY_INTERFACE
		DETECTOR=STARCHECK
		SCAN_CURVETYPE=INPLANE_PROFILE
		SCAN_DEPTH=0.00
		SCAN_OFFAXIS_CROSSPLANE=-100.00
		SCAN_ANGLE=0.00
		SCAN_DIAGONAL=NOT_DIAGONAL
		MEAS_PRESET=TIME_PRESET
		MEAS_TIME=10.000
		MEAS_UNIT=GY
		PRESSURE=1013.25
		TEMPERATURE=20.00
		NORM_TEMPERATURE=20.00
		CORRECTION_FACTOR=1.0000
		CORRECTIONS=AIR_DENSITY_CORR;
		BEGIN_DATA
			-60.00		8.7385E-03
			-30.00		10.858E-03
			30.00		10.351E-03
			60.00		8.0673E-03
		END_DATA
	END_SCAN  9
	BEGIN_SCAN  10
		TASK_NAME=MODE_INTERVAL
		PROGRAM=BeamAdjust 1.2
		MEAS_DATE=07-Oct-2010 13:54:23
		LINAC=A4
		MODALITY=X
		INPLANE_AXIS_DIR=TARGET_GUN
		CROSSPLANE_AXIS_DIR=LEFT_RIGHT
		DEPTH_AXIS_DIR=UP_DOWN
		ENERGY=6.00
		SSD=950.00
		WEDGE=None
		FIELD_INPLANE=100.00
		FIELD_CROSSPLANE=100.00
		FIELD_TYPE=RECTANGULAR
		GANTRY=0.00
		GANTRY_UPRIGHT_POSITION=0
		GANTRY_ROTATION=CW
		COLL_ANGLE=90.00
		COLL_OFFSET_INPLANE=0.00
		COLL_OFFSET_CROSSPLANE=0.00
		SCAN_DEVICE=STARCHECK
		ELECTROMETER=2D_ARRAY_INTERFACE
		DETECTOR=STARCHECK
		SCAN_CURVETYPE=INPLANE_PROFILE
		SCAN_DEPTH=0.00
		SCAN_OFFAXIS_CROSSPLANE=-50.00
		SCAN_ANGLE=0.00
		SCAN_DIAGONAL=NOT_DIAGONAL
		MEAS_PRESET=TIME_PRESET
		MEAS_TIME=10.000
		MEAS_UNIT=GY
		PRESSURE=1013.25
		TEMPERATURE=20.00
		NORM_TEMPERATURE=20.00
		CORRECTION_FACTOR=1.0000
		CORRECTIONS=AIR_DENSITY_CORR;
		BEGIN_DATA
			-30.00		368.70E-03
			-15.00		365.48E-03
			15.00		355.08E-03
			30.00		344.25E-03
		END_DATA
	END_SCAN  10
	BEGIN_SCAN  11
		TASK_NAME=MODE_INTERVAL
		PROGRAM=BeamAdjust 1.2
		MEAS_DATE=07-Oct-2010 13:54:23
		LINAC=A4
		MODALITY=X
		INPLANE_AXIS_DIR=TARGET_GUN
		CROSSPLANE_AXIS_DIR=LEFT_RIGHT
		DEPTH_AXIS_DIR=UP_DOWN
		ENERGY=6.00
		SSD=950.00
		WEDGE=None
		FIELD_INPLANE=100.00
		FIELD_CROSSPLANE=100.00
		FIELD_TYPE=RECTANGULAR
		GANTRY=0.00
		GANTRY_UPRIGHT_POSITION=0
		GANTRY_ROTATION=CW
		COLL_ANGLE=90.00
		COLL_OFFSET_INPLANE=0.00
		COLL_OFFSET_CROSSPLANE=0.00
		SCAN_DEVICE=STARCHECK
		ELECTROMETER=2D_ARRAY_INTERFACE
		DETECTOR=STARCHECK
		SCAN_CURVETYPE=INPLANE_PROFILE
		SCAN_DEPTH=0.00
		SCAN_OFFAXIS_CROSSPLANE=0.00
		SCAN_ANGLE=0.00
		SCAN_DIAGONAL=NOT_DIAGONAL
		MEAS_PRESET=TIME_PRESET
		MEAS_TIME=10.000
		MEAS_UNIT=GY
		PRESSURE=1013.25
		TEMPERATURE=20.00
		NORM_TEMPERATURE=20.00
		CORRECTION_FACTOR=1.0000
		CORRECTIONS=AIR_DENSITY_CORR;
		BEGIN_DATA
			-126.00		9.2374E-03
			-123.00		9.3553E-03
			-120.00		10.427E-03
			-117.00		11.705E-03
			-114.00		11.715E-03
			-111.00		12.776E-03
			-108.00		13.662E-03
			-105.00		14.649E-03
			-102.00		16.193E-03
			-99.00		17.000E-03
			-96.00		18.359E-03
			-93.00		20.287E-03
			-90.00		22.127E-03
			-87.00		23.873E-03
			-84.00		25.852E-03
			-81.00		28.088E-03
			-78.00		30.700E-03
			-75.00		33.370E-03
			-72.00		36.686E-03
			-69.00		40.721E-03
			-66.00		46.145E-03
			-63.00		52.825E-03
			-60.00		62.676E-03
			-57.00		83.629E-03
			-54.00		134.67E-03
			-51.00		308.01E-03
			-48.00		557.76E-03
			-45.00		623.12E-03
			-42.00		643.13E-03
			-39.00		651.74E-03
			-36.00		657.13E-03
			-33.00		660.77E-03
			-30.00		664.49E-03
			-27.00		665.44E-03
			-24.00		665.08E-03
			-21.00		663.97E-03
			-18.00		670.56E-03
			-15.00		669.62E-03
			-12.00		670.23E-03
			-9.00		670.43E-03
			-6.00		667.47E-03
			0.00		667.17E-03
			6.00		671.90E-03
			9.00		671.31E-03
			12.00		670.86E-03
			15.00		668.38E-03
			18.00		664.07E-03
			21.00		663.87E-03
			24.00		660.53E-03
			27.00		662.04E-03
			30.00		657.76E-03
			33.00		655.89E-03
			36.00		653.94E-03
			39.00		642.16E-03
			42.00		630.27E-03
			45.00		596.34E-03
			48.00		430.93E-03
			51.00		187.19E-03
			54.00		98.028E-03
			57.00		69.536E-03
			60.00		56.693E-03
			63.00		48.740E-03
			66.00		43.570E-03
			69.00		38.810E-03
			72.00		34.968E-03
			75.00		31.322E-03
			78.00		29.022E-03
			81.00		26.239E-03
			84.00		24.875E-03
			87.00		22.326E-03
			90.00		20.799E-03
			93.00		19.649E-03
			96.00		18.090E-03
			99.00		16.645E-03
			102.00		15.061E-03
			105.00		14.103E-03
			108.00		13.687E-03
			111.00		12.751E-03
			114.00		11.849E-03
			117.00		11.300E-03
			120.00		10.766E-03
			123.00		9.6681E-03
			126.00		8.8043E-03
		END_DATA
	END_SCAN  11
	BEGIN_SCAN  12
		TASK_NAME=MODE_INTERVAL
		PROGRAM=BeamAdjust 1.2
		MEAS_DATE=07-Oct-2010 13:54:23
		LINAC=A4
		MODALITY=X
		INPLANE_AXIS_DIR=TARGET_GUN
		CROSSPLANE_AXIS_DIR=LEFT_RIGHT
		DEPTH_AXIS_DIR=UP_DOWN
		ENERGY=6.00
		SSD=950.00
		WEDGE=None
		FIELD_INPLANE=100.00
		FIELD_CROSSPLANE=100.00
		FIELD_TYPE=RECTANGULAR
		GANTRY=0.00
		GANTRY_UPRIGHT_POSITION=0
		GANTRY_ROTATION=CW
		COLL_ANGLE=90.00
		COLL_OFFSET_INPLANE=0.00
		COLL_OFFSET_CROSSPLANE=0.00
		SCAN_DEVICE=STARCHECK
		ELECTROMETER=2D_ARRAY_INTERFACE
		DETECTOR=STARCHECK
		SCAN_CURVETYPE=INPLANE_PROFILE
		SCAN_DEPTH=0.00
		SCAN_OFFAXIS_CROSSPLANE=50.00
		SCAN_ANGLE=0.00
		SCAN_DIAGONAL=NOT_DIAGONAL
		MEAS_PRESET=TIME_PRESET
		MEAS_TIME=10.000
		MEAS_UNIT=GY
		PRESSURE=1013.25
		TEMPERATURE=20.00
		NORM_TEMPERATURE=20.00
		CORRECTION_FACTOR=1.0000
		CORRECTIONS=AIR_DENSITY_CORR;
		BEGIN_DATA
			-30.00		355.22E-03
			-15.00		364.84E-03
			15.00		372.46E-03
			30.00		373.74E-03
		END_DATA
	END_SCAN  12
	BEGIN_SCAN  13
		TASK_NAME=MODE_INTERVAL
		PROGRAM=BeamAdjust 1.2
		MEAS_DATE=07-Oct-2010 13:54:23
		LINAC=A4
		MODALITY=X
		INPLANE_AXIS_DIR=TARGET_GUN
		CROSSPLANE_AXIS_DIR=LEFT_RIGHT
		DEPTH_AXIS_DIR=UP_DOWN
		ENERGY=6.00
		SSD=950.00
		WEDGE=None
		FIELD_INPLANE=100.00
		FIELD_CROSSPLANE=100.00
		FIELD_TYPE=RECTANGULAR
		GANTRY=0.00
		GANTRY_UPRIGHT_POSITION=0
		GANTRY_ROTATION=CW
		COLL_ANGLE=90.00
		COLL_OFFSET_INPLANE=0.00
		COLL_OFFSET_CROSSPLANE=0.00
		SCAN_DEVICE=STARCHECK
		ELECTROMETER=2D_ARRAY_INTERFACE
		DETECTOR=STARCHECK
		SCAN_CURVETYPE=INPLANE_PROFILE
		SCAN_DEPTH=0.00
		SCAN_OFFAXIS_CROSSPLANE=100.00
		SCAN_ANGLE=0.00
		SCAN_DIAGONAL=NOT_DIAGONAL
		MEAS_PRESET=TIME_PRESET
		MEAS_TIME=10.000
		MEAS_UNIT=GY
		PRESSURE=1013.25
		TEMPERATURE=20.00
		NORM_TEMPERATURE=20.00
		CORRECTION_FACTOR=1.0000
		CORRECTIONS=AIR_DENSITY_CORR;
		BEGIN_DATA
			-60.00		8.3487E-03
			-30.00		10.294E-03
			30.00		10.515E-03
			60.00		7.7216E-03
		END_DATA
	END_SCAN  13
	BEGIN_SCAN  14
		TASK_NAME=MODE_INTERVAL
		PROGRAM=BeamAdjust 1.2
		MEAS_DATE=07-Oct-2010 13:54:23
		LINAC=A4
		MODALITY=X
		INPLANE_AXIS_DIR=TARGET_GUN
		CROSSPLANE_AXIS_DIR=LEFT_RIGHT
		DEPTH_AXIS_DIR=UP_DOWN
		ENERGY=6.00
		SSD=950.00
		WEDGE=None
		FIELD_INPLANE=100.00
		FIELD_CROSSPLANE=100.00
		FIELD_TYPE=RECTANGULAR
		GANTRY=0.00
		GANTRY_UPRIGHT_POSITION=0
		GANTRY_ROTATION=CW
		COLL_ANGLE=90.00
		COLL_OFFSET_INPLANE=0.00
		COLL_OFFSET_CROSSPLANE=0.00
		SCAN_DEVICE=STARCHECK
		ELECTROMETER=2D_ARRAY_INTERFACE
		DETECTOR=STARCHECK
		SCAN_CURVETYPE=INPLANE_PROFILE
		SCAN_DEPTH=0.00
		SCAN_OFFAXIS_CROSSPLANE=130.00
		SCAN_ANGLE=0.00
		SCAN_DIAGONAL=NOT_DIAGONAL
		MEAS_PRESET=TIME_PRESET
		MEAS_TIME=10.000
		MEAS_UNIT=GY
		PRESSURE=1013.25
		TEMPERATURE=20.00
		NORM_TEMPERATURE=20.00
		CORRECTION_FACTOR=1.0000
		CORRECTIONS=AIR_DENSITY_CORR;
		BEGIN_DATA
			-130.00		2.0272E-03
			-125.00		2.8950E-03
			-120.00		2.5998E-03
			-115.00		2.9686E-03
			-110.00		3.0546E-03
			-105.00		2.9739E-03
			-100.00		3.4444E-03
			-95.00		3.2617E-03
			-90.00		3.1279E-03
			-85.00		4.0510E-03
			-80.00		4.0264E-03
			-75.00		3.7991E-03
			-70.00		4.2123E-03
			-65.00		4.1237E-03
			-60.00		4.9834E-03
			-55.00		4.6690E-03
			-50.00		4.4436E-03
			-45.00		5.0101E-03
			-40.00		5.1787E-03
			-35.00		5.3956E-03
			-30.00		6.0878E-03
			-25.00		5.3246E-03
			-20.00		5.5378E-03
			-15.00		5.7015E-03
			-10.00		5.1077E-03
			-5.00		6.2231E-03
			0.00		6.6813E-03
			5.00		5.7489E-03
			10.00		6.1160E-03
			15.00		5.5212E-03
			20.00		5.7360E-03
			25.00		5.9002E-03
			30.00		5.0207E-03
			35.00		5.2079E-03
			40.00		6.2609E-03
			45.00		5.0682E-03
			50.00		5.0448E-03
			55.00		5.3265E-03
			60.00		4.5294E-03
			65.00		4.3387E-03
			70.00		3.9654E-03
			75.00		4.3063E-03
			80.00		4.2863E-03
			85.00		3.6833E-03
			90.00		3.5211E-03
			95.00		3.4068E-03
			100.00		3.3700E-03
			105.00		3.0498E-03
			110.00		3.4143E-03
			115.00		2.6754E-03
			120.00		2.9926E-03
			125.00		2.1105E-03
			130.00		2.3639E-03
		END_DATA
	END_SCAN  14
	BEGIN_SCAN  15
		TASK_NAME=MODE_INTERVAL
		PROGRAM=BeamAdjust 1.2
		MEAS_DATE=07-Oct-2010 13:54:23
		LINAC=A4
		MODALITY=X
		INPLANE_AXIS_DIR=TARGET_GUN
		CROSSPLANE_AXIS_DIR=LEFT_RIGHT
		DEPTH_AXIS_DIR=UP_DOWN
		ENERGY=6.00
		SSD=950.00
		WEDGE=None
		FIELD_INPLANE=100.00
		FIELD_CROSSPLANE=100.00
		FIELD_TYPE=RECTANGULAR
		GANTRY=0.00
		GANTRY_UPRIGHT_POSITION=0
		GANTRY_ROTATION=CW
		COLL_ANGLE=90.00
		COLL_OFFSET_INPLANE=0.00
		COLL_OFFSET_CROSSPLANE=0.00
		SCAN_DEVICE=STARCHECK
		ELECTROMETER=2D_ARRAY_INTERFACE
		DETECTOR=STARCHECK
		SCAN_CURVETYPE=INPLANE_PROFILE
		SCAN_DEPTH=0.00
		SCAN_OFFAXIS_CROSSPLANE=0.00
		SCAN_ANGLE=0.00
		SCAN_DIAGONAL=FIRST_DIAGONAL
		MEAS_PRESET=TIME_PRESET
		MEAS_TIME=10.000
		MEAS_UNIT=GY
		PRESSURE=1013.25
		TEMPERATURE=20.00
		NORM_TEMPERATURE=20.00
		CORRECTION_FACTOR=1.0000
		CORRECTIONS=AIR_DENSITY_CORR;
		BEGIN_DATA
			-172.40		2.7610E-03
			-169.40		2.9443E-03
			-166.40		4.2033E-03
			-163.40		3.8017E-03
			-160.40		3.9654E-03
			-157.40		4.0722E-03
			-154.40		4.1009E-03
			-151.40		4.3536E-03
			-148.40		4.6516E-03
			-145.40		5.1897E-03
			-142.40		6.3482E-03
			-139.40		5.9501E-03
			-136.40		6.3967E-03
			-133.40		6.9733E-03
			-130.40		7.2703E-03
			-127.40		7.8363E-03
			-124.40		8.2635E-03
			-121.40		9.1715E-03
			-118.40		9.9789E-03
			-115.40		10.848E-03
			-112.40		11.477E-03
			-109.40		12.879E-03
			-106.40		13.618E-03
			-103.40		14.625E-03
			-100.40		16.294E-03
			-97.40		18.121E-03
			-94.40		20.026E-03
			-91.40		21.675E-03
			-88.40		25.062E-03
			-85.40		27.812E-03
			-82.40		32.262E-03
			-79.40		38.501E-03
			-76.40		49.995E-03
			-73.40		84.947E-03
			-70.40		211.16E-03
			-67.40		425.11E-03
			-64.40		557.89E-03
			-61.40		603.93E-03
			-58.40		624.01E-03
			-55.40		635.83E-03
			-52.40		642.62E-03
			-49.40		647.99E-03
			-46.40		650.58E-03
			-43.40		652.54E-03
			-40.40		655.95E-03
			-37.40		660.72E-03
			-34.40		660.63E-03
			-31.40		662.29E-03
			-28.40		660.98E-03
			-25.40		663.31E-03
			-22.40		663.93E-03
			-19.40		664.67E-03
			-16.40		668.84E-03
			-13.40		671.12E-03
			0.00		667.17E-03
			13.40		671.47E-03
			16.40		667.52E-03
			19.40		667.31E-03
			22.40		665.96E-03
			25.40		665.14E-03
			28.40		663.81E-03
			31.40		661.32E-03
			34.40		658.62E-03
			37.40		660.78E-03
			40.40		658.05E-03
			43.40		655.24E-03
			46.40		652.97E-03
			49.40		647.75E-03
			52.40		642.33E-03
			55.40		630.48E-03
			58.40		616.43E-03
			61.40		583.82E-03
			64.40		494.63E-03
			67.40		319.37E-03
			70.40		138.79E-03
			73.40		66.031E-03
			76.40		44.694E-03
			79.40		35.659E-03
			82.40		30.659E-03
			85.40		26.437E-03
			88.40		24.091E-03
			91.40		21.576E-03
			94.40		19.210E-03
			97.40		17.738E-03
			100.40		16.076E-03
			103.40		14.867E-03
			106.40		13.477E-03
			109.40		12.166E-03
			112.40		10.796E-03
			115.40		10.171E-03
			118.40		9.0556E-03
			121.40		8.5954E-03
			124.40		8.1183E-03
			127.40		7.6096E-03
			130.40		7.9023E-03
			133.40		6.5795E-03
			136.40		5.4104E-03
			139.40		5.4074E-03
			142.40		4.8715E-03
			145.40		5.1086E-03
			148.40		4.8486E-03
			151.40		4.2147E-03
			154.40		4.3655E-03
			157.40		3.8697E-03
			160.40		3.1342E-03
			163.40		2.9862E-03
			166.40		3.3377E-03
			169.40		3.1358E-03
			172.40		3.5757E-03
		END_DATA
	END_SCAN  15
	BEGIN_SCAN  16
		TASK_NAME=MODE_INTERVAL
		PROGRAM=BeamAdjust 1.2
		MEAS_DATE=07-Oct-2010 13:54:23
		LINAC=A4
		MODALITY=X
		INPLANE_AXIS_DIR=GUN_TARGET
		CROSSPLANE_AXIS_DIR=LEFT_RIGHT
		DEPTH_AXIS_DIR=UP_DOWN
		ENERGY=6.00
		SSD=950.00
		WEDGE=None
		FIELD_INPLANE=100.00
		FIELD_CROSSPLANE=100.00
		FIELD_TYPE=RECTANGULAR
		GANTRY=0.00
		GANTRY_UPRIGHT_POSITION=0
		GANTRY_ROTATION=CW
		COLL_ANGLE=90.00
		COLL_OFFSET_INPLANE=0.00
		COLL_OFFSET_CROSSPLANE=0.00
		SCAN_DEVICE=STARCHECK
		ELECTROMETER=2D_ARRAY_INTERFACE
		DETECTOR=STARCHECK
		SCAN_CURVETYPE=INPLANE_PROFILE
		SCAN_DEPTH=0.00
		SCAN_OFFAXIS_CROSSPLANE=0.00
		SCAN_ANGLE=0.00
		SCAN_DIAGONAL=SECOND_DIAGONAL
		MEAS_PRESET=TIME_PRESET
		MEAS_TIME=10.000
		MEAS_UNIT=GY
		PRESSURE=1013.25
		TEMPERATURE=20.00
		NORM_TEMPERATURE=20.00
		CORRECTION_FACTOR=1.0000
		CORRECTIONS=AIR_DENSITY_CORR;
		BEGIN_DATA
			-172.40		2.9232E-03
			-169.40		3.2315E-03
			-166.40		3.3033E-03
			-163.40		3.6818E-03
			-160.40		3.5168E-03
			-157.40		3.7118E-03
			-154.40		4.3414E-03
			-151.40		3.8586E-03
			-148.40		5.2030E-03
			-145.40		4.5723E-03
			-142.40		5.4882E-03
			-139.40		5.5528E-03
			-136.40		5.4901E-03
			-133.40		7.1307E-03
			-130.40		6.9062E-03
			-127.40		8.0488E-03
			-124.40		8.5197E-03
			-121.40		9.3645E-03
			-118.40		9.4445E-03
			-115.40		10.430E-03
			-112.40		10.677E-03
			-109.40		12.149E-03
			-106.40		13.398E-03
			-103.40		14.405E-03
			-100.40		16.922E-03
			-97.40		17.412E-03
			-94.40		19.496E-03
			-91.40		21.690E-03
			-88.40		23.552E-03
			-85.40		26.946E-03
			-82.40		31.487E-03
			-79.40		37.563E-03
			-76.40		48.508E-03
			-73.40		79.118E-03
			-70.40		191.67E-03
			-67.40		407.09E-03
			-64.40		553.64E-03
			-61.40		605.70E-03
			-58.40		629.26E-03
			-55.40		639.25E-03
			-52.40		650.03E-03
			-49.40		654.07E-03
			-46.40		657.15E-03
			-43.40		660.14E-03
			-40.40		662.51E-03
			-37.40		665.84E-03
			-34.40		665.13E-03
			-31.40		665.52E-03
			-28.40		667.94E-03
			-25.40		666.64E-03
			-22.40		664.94E-03
			-19.40		668.70E-03
			-16.40		670.03E-03
			-13.40		673.18E-03
			0.00		667.17E-03
			13.40		671.38E-03
			16.40		668.20E-03
			19.40		665.26E-03
			22.40		662.13E-03
			25.40		662.51E-03
			28.40		660.75E-03
			31.40		659.35E-03
			34.40		656.67E-03
			37.40		655.67E-03
			40.40		654.48E-03
			43.40		652.29E-03
			46.40		649.97E-03
			49.40		645.98E-03
			52.40		637.25E-03
			55.40		627.87E-03
			58.40		615.89E-03
			61.40		583.94E-03
			64.40		500.89E-03
			67.40		316.73E-03
			70.40		133.13E-03
			73.40		64.516E-03
			76.40		43.967E-03
			79.40		34.855E-03
			82.40		30.519E-03
			85.40		26.776E-03
			88.40		24.010E-03
			91.40		21.523E-03
			94.40		19.091E-03
			97.40		17.623E-03
			100.40		15.241E-03
			103.40		13.890E-03
			106.40		13.304E-03
			109.40		12.423E-03
			112.40		10.895E-03
			115.40		10.340E-03
			118.40		9.3988E-03
			121.40		8.6184E-03
			124.40		7.5875E-03
			127.40		7.3460E-03
			130.40		7.2845E-03
			133.40		6.6283E-03
			136.40		5.9720E-03
			139.40		5.9432E-03
			142.40		5.7341E-03
			145.40		5.1642E-03
			148.40		4.8200E-03
			151.40		5.0820E-03
			154.40		4.2511E-03
			157.40		3.9059E-03
			160.40		3.7197E-03
			163.40		3.9185E-03
			166.40		3.7804E-03
			169.40		2.8314E-03
			172.40		2.4008E-03
		END_DATA
	END_SCAN  16
END_SCAN_DATA
