BEGIN_SCAN_DATA
	FORMAT=CC-Export V1.9                  
	FILE_CREATION_DATE=07-Oct-2010 13:53:57
	LAST_MODIFIED=07-Oct-2010 13:53:57
	BEGIN_SCAN  1
		TASK_NAME=MODE_INTERVAL
		PROGRAM=BeamAdjust 1.2
		MEAS_DATE=07-Oct-2010 13:53:57
		LINAC=A4
		MODALITY=X
		INPLANE_AXIS_DIR=TARGET_GUN
		CROSSPLANE_AXIS_DIR=LEFT_RIGHT
		DEPTH_AXIS_DIR=UP_DOWN
		ENERGY=6.00
		SSD=950.00
		WEDGE=None
		FIELD_INPLANE=100.00
		FIELD_CROSSPLANE=100.00
		FIELD_TYPE=RECTANGULAR
		GANTRY=0.00
		GANTRY_UPRIGHT_POSITION=0
		GANTRY_ROTATION=CW
		COLL_ANGLE=90.00
		COLL_OFFSET_INPLANE=0.00
		COLL_OFFSET_CROSSPLANE=0.00
		SCAN_DEVICE=STARCHECK
		ELECTROMETER=2D_ARRAY_INTERFACE
		DETECTOR=STARCHECK
		SCAN_CURVETYPE=CROSSPLANE_PROFILE
		SCAN_DEPTH=0.00
		SCAN_OFFAXIS_INPLANE=-130.00
		SCAN_ANGLE=0.00
		SCAN_DIAGONAL=NOT_DIAGONAL
		MEAS_PRESET=TIME_PRESET
		MEAS_TIME=10.000
		MEAS_UNIT=GY
		PRESSURE=1013.25
		TEMPERATURE=20.00
		NORM_TEMPERATURE=20.00
		CORRECTION_FACTOR=1.0000
		CORRECTIONS=AIR_DENSITY_CORR;
		BEGIN_DATA
			-130.00		2.7986E-03
			-80.00		4.3106E-03
			-40.00		7.4137E-03
			40.00		7.0533E-03
			80.00		3.9934E-03
			130.00		2.0092E-03
		END_DATA
	END_SCAN  1
	BEGIN_SCAN  2
		TASK_NAME=MODE_INTERVAL
		PROGRAM=BeamAdjust 1.2
		MEAS_DATE=07-Oct-2010 13:53:57
		LINAC=A4
		MODALITY=X
		INPLANE_AXIS_DIR=TARGET_GUN
		CROSSPLANE_AXIS_DIR=LEFT_RIGHT
		DEPTH_AXIS_DIR=UP_DOWN
		ENERGY=6.00
		SSD=950.00
		WEDGE=None
		FIELD_INPLANE=100.00
		FIELD_CROSSPLANE=100.00
		FIELD_TYPE=RECTANGULAR
		GANTRY=0.00
		GANTRY_UPRIGHT_POSITION=0
		GANTRY_ROTATION=CW
		COLL_ANGLE=90.00
		COLL_OFFSET_INPLANE=0.00
		COLL_OFFSET_CROSSPLANE=0.00
		SCAN_DEVICE=STARCHECK
		ELECTROMETER=2D_ARRAY_INTERFACE
		DETECTOR=STARCHECK
		SCAN_CURVETYPE=CROSSPLANE_PROFILE
		SCAN_DEPTH=0.00
		SCAN_OFFAXIS_INPLANE=-100.00
		SCAN_ANGLE=0.00
		SCAN_DIAGONAL=NOT_DIAGONAL
		MEAS_PRESET=TIME_PRESET
		MEAS_TIME=10.000
		MEAS_UNIT=GY
		PRESSURE=1013.25
		TEMPERATURE=20.00
		NORM_TEMPERATURE=20.00
		CORRECTION_FACTOR=1.0000
		CORRECTIONS=AIR_DENSITY_CORR;
		BEGIN_DATA
			-60.00		10.647E-03
			-30.00		14.693E-03
			30.00		15.010E-03
			60.00		10.217E-03
		END_DATA
	END_SCAN  2
	BEGIN_SCAN  3
		TASK_NAME=MODE_INTERVAL
		PROGRAM=BeamAdjust 1.2
		MEAS_DATE=07-Oct-2010 13:53:57
		LINAC=A4
		MODALITY=X
		INPLANE_AXIS_DIR=TARGET_GUN
		CROSSPLANE_AXIS_DIR=LEFT_RIGHT
		DEPTH_AXIS_DIR=UP_DOWN
		ENERGY=6.00
		SSD=950.00
		WEDGE=None
		FIELD_INPLANE=100.00
		FIELD_CROSSPLANE=100.00
		FIELD_TYPE=RECTANGULAR
		GANTRY=0.00
		GANTRY_UPRIGHT_POSITION=0
		GANTRY_ROTATION=CW
		COLL_ANGLE=90.00
		COLL_OFFSET_INPLANE=0.00
		COLL_OFFSET_CROSSPLANE=0.00
		SCAN_DEVICE=STARCHECK
		ELECTROMETER=2D_ARRAY_INTERFACE
		DETECTOR=STARCHECK
		SCAN_CURVETYPE=CROSSPLANE_PROFILE
		SCAN_DEPTH=0.00
		SCAN_OFFAXIS_INPLANE=-50.00
		SCAN_ANGLE=0.00
		SCAN_DIAGONAL=NOT_DIAGONAL
		MEAS_PRESET=TIME_PRESET
		MEAS_TIME=10.000
		MEAS_UNIT=GY
		PRESSURE=1013.25
		TEMPERATURE=20.00
		NORM_TEMPERATURE=20.00
		CORRECTION_FACTOR=1.0000
		CORRECTIONS=AIR_DENSITY_CORR;
		BEGIN_DATA
			-30.00		392.24E-03
			-15.00		352.61E-03
			15.00		379.42E-03
			30.00		390.95E-03
		END_DATA
	END_SCAN  3
	BEGIN_SCAN  4
		TASK_NAME=MODE_INTERVAL
		PROGRAM=BeamAdjust 1.2
		MEAS_DATE=07-Oct-2010 13:53:57
		LINAC=A4
		MODALITY=X
		INPLANE_AXIS_DIR=TARGET_GUN
		CROSSPLANE_AXIS_DIR=LEFT_RIGHT
		DEPTH_AXIS_DIR=UP_DOWN
		ENERGY=6.00
		SSD=950.00
		WEDGE=None
		FIELD_INPLANE=100.00
		FIELD_CROSSPLANE=100.00
		FIELD_TYPE=RECTANGULAR
		GANTRY=0.00
		GANTRY_UPRIGHT_POSITION=0
		GANTRY_ROTATION=CW
		COLL_ANGLE=90.00
		COLL_OFFSET_INPLANE=0.00
		COLL_OFFSET_CROSSPLANE=0.00
		SCAN_DEVICE=STARCHECK
		ELECTROMETER=2D_ARRAY_INTERFACE
		DETECTOR=STARCHECK
		SCAN_CURVETYPE=CROSSPLANE_PROFILE
		SCAN_DEPTH=0.00
		SCAN_OFFAXIS_INPLANE=0.00
		SCAN_ANGLE=0.00
		SCAN_DIAGONAL=NOT_DIAGONAL
		MEAS_PRESET=TIME_PRESET
		MEAS_TIME=10.000
		MEAS_UNIT=GY
		PRESSURE=1013.25
		TEMPERATURE=20.00
		NORM_TEMPERATURE=20.00
		CORRECTION_FACTOR=1.0000
		CORRECTIONS=AIR_DENSITY_CORR;
		BEGIN_DATA
			-126.00		6.7588E-03
			-123.00		7.6623E-03
			-120.00		8.0889E-03
			-117.00		8.7854E-03
			-114.00		8.9522E-03
			-111.00		9.7675E-03
			-108.00		10.532E-03
			-105.00		10.911E-03
			-102.00		12.373E-03
			-99.00		12.938E-03
			-96.00		13.815E-03
			-93.00		15.280E-03
			-90.00		16.700E-03
			-87.00		18.012E-03
			-84.00		20.139E-03
			-81.00		21.705E-03
			-78.00		23.756E-03
			-75.00		26.759E-03
			-72.00		29.445E-03
			-69.00		33.879E-03
			-66.00		38.425E-03
			-63.00		43.769E-03
			-60.00		52.951E-03
			-57.00		67.888E-03
			-54.00		101.02E-03
			-51.00		228.87E-03
			-48.00		519.67E-03
			-45.00		608.66E-03
			-42.00		632.65E-03
			-39.00		646.57E-03
			-36.00		652.96E-03
			-33.00		653.74E-03
			-30.00		656.01E-03
			-27.00		658.73E-03
			-24.00		661.14E-03
			-21.00		661.11E-03
			-18.00		666.81E-03
			-15.00		667.00E-03
			-12.00		666.63E-03
			-9.00		669.48E-03
			-6.00		668.19E-03
			0.00		667.02E-03
			6.00		670.63E-03
			9.00		670.13E-03
			12.00		667.66E-03
			15.00		666.99E-03
			18.00		666.21E-03
			21.00		664.20E-03
			24.00		660.72E-03
			27.00		664.77E-03
			30.00		663.47E-03
			33.00		660.92E-03
			36.00		658.06E-03
			39.00		652.90E-03
			42.00		642.45E-03
			45.00		622.64E-03
			48.00		559.55E-03
			51.00		296.09E-03
			54.00		115.15E-03
			57.00		73.527E-03
			60.00		55.694E-03
			63.00		46.260E-03
			66.00		39.391E-03
			69.00		34.263E-03
			72.00		30.651E-03
			75.00		27.447E-03
			78.00		24.260E-03
			81.00		22.078E-03
			84.00		20.356E-03
			87.00		18.432E-03
			90.00		16.914E-03
			93.00		15.584E-03
			96.00		13.790E-03
			99.00		12.700E-03
			102.00		12.077E-03
			105.00		11.410E-03
			108.00		10.632E-03
			111.00		9.6817E-03
			114.00		9.7592E-03
			117.00		8.2076E-03
			120.00		7.2558E-03
			123.00		7.5223E-03
			126.00		7.1064E-03
		END_DATA
	END_SCAN  4
	BEGIN_SCAN  5
		TASK_NAME=MODE_INTERVAL
		PROGRAM=BeamAdjust 1.2
		MEAS_DATE=07-Oct-2010 13:53:57
		LINAC=A4
		MODALITY=X
		INPLANE_AXIS_DIR=TARGET_GUN
		CROSSPLANE_AXIS_DIR=LEFT_RIGHT
		DEPTH_AXIS_DIR=UP_DOWN
		ENERGY=6.00
		SSD=950.00
		WEDGE=None
		FIELD_INPLANE=100.00
		FIELD_CROSSPLANE=100.00
		FIELD_TYPE=RECTANGULAR
		GANTRY=0.00
		GANTRY_UPRIGHT_POSITION=0
		GANTRY_ROTATION=CW
		COLL_ANGLE=90.00
		COLL_OFFSET_INPLANE=0.00
		COLL_OFFSET_CROSSPLANE=0.00
		SCAN_DEVICE=STARCHECK
		ELECTROMETER=2D_ARRAY_INTERFACE
		DETECTOR=STARCHECK
		SCAN_CURVETYPE=CROSSPLANE_PROFILE
		SCAN_DEPTH=0.00
		SCAN_OFFAXIS_INPLANE=50.00
		SCAN_ANGLE=0.00
		SCAN_DIAGONAL=NOT_DIAGONAL
		MEAS_PRESET=TIME_PRESET
		MEAS_TIME=10.000
		MEAS_UNIT=GY
		PRESSURE=1013.25
		TEMPERATURE=20.00
		NORM_TEMPERATURE=20.00
		CORRECTION_FACTOR=1.0000
		CORRECTIONS=AIR_DENSITY_CORR;
		BEGIN_DATA
			-30.00		272.95E-03
			-15.00		286.08E-03
			15.00		255.90E-03
			30.00		263.75E-03
		END_DATA
	END_SCAN  5
	BEGIN_SCAN  6
		TASK_NAME=MODE_INTERVAL
		PROGRAM=BeamAdjust 1.2
		MEAS_DATE=07-Oct-2010 13:53:57
		LINAC=A4
		MODALITY=X
		INPLANE_AXIS_DIR=TARGET_GUN
		CROSSPLANE_AXIS_DIR=LEFT_RIGHT
		DEPTH_AXIS_DIR=UP_DOWN
		ENERGY=6.00
		SSD=950.00
		WEDGE=None
		FIELD_INPLANE=100.00
		FIELD_CROSSPLANE=100.00
		FIELD_TYPE=RECTANGULAR
		GANTRY=0.00
		GANTRY_UPRIGHT_POSITION=0
		GANTRY_ROTATION=CW
		COLL_ANGLE=90.00
		COLL_OFFSET_INPLANE=0.00
		COLL_OFFSET_CROSSPLANE=0.00
		SCAN_DEVICE=STARCHECK
		ELECTROMETER=2D_ARRAY_INTERFACE
		DETECTOR=STARCHECK
		SCAN_CURVETYPE=CROSSPLANE_PROFILE
		SCAN_DEPTH=0.00
		SCAN_OFFAXIS_INPLANE=100.00
		SCAN_ANGLE=0.00
		SCAN_DIAGONAL=NOT_DIAGONAL
		MEAS_PRESET=TIME_PRESET
		MEAS_TIME=10.000
		MEAS_UNIT=GY
		PRESSURE=1013.25
		TEMPERATURE=20.00
		NORM_TEMPERATURE=20.00
		CORRECTION_FACTOR=1.0000
		CORRECTIONS=AIR_DENSITY_CORR;
		BEGIN_DATA
			-60.00		10.294E-03
			-30.00		14.881E-03
			30.00		14.906E-03
			60.00		9.1757E-03
		END_DATA
	END_SCAN  6
	BEGIN_SCAN  7
		TASK_NAME=MODE_INTERVAL
		PROGRAM=BeamAdjust 1.2
		MEAS_DATE=07-Oct-2010 13:53:57
		LINAC=A4
		MODALITY=X
		INPLANE_AXIS_DIR=TARGET_GUN
		CROSSPLANE_AXIS_DIR=LEFT_RIGHT
		DEPTH_AXIS_DIR=UP_DOWN
		ENERGY=6.00
		SSD=950.00
		WEDGE=None
		FIELD_INPLANE=100.00
		FIELD_CROSSPLANE=100.00
		FIELD_TYPE=RECTANGULAR
		GANTRY=0.00
		GANTRY_UPRIGHT_POSITION=0
		GANTRY_ROTATION=CW
		COLL_ANGLE=90.00
		COLL_OFFSET_INPLANE=0.00
		COLL_OFFSET_CROSSPLANE=0.00
		SCAN_DEVICE=STARCHECK
		ELECTROMETER=2D_ARRAY_INTERFACE
		DETECTOR=STARCHECK
		SCAN_CURVETYPE=CROSSPLANE_PROFILE
		SCAN_DEPTH=0.00
		SCAN_OFFAXIS_INPLANE=130.00
		SCAN_ANGLE=0.00
		SCAN_DIAGONAL=NOT_DIAGONAL
		MEAS_PRESET=TIME_PRESET
		MEAS_TIME=10.000
		MEAS_UNIT=GY
		PRESSURE=1013.25
		TEMPERATURE=20.00
		NORM_TEMPERATURE=20.00
		CORRECTION_FACTOR=1.0000
		CORRECTIONS=AIR_DENSITY_CORR;
		BEGIN_DATA
			-130.00		2.1440E-03
			-80.00		4.4200E-03
			-40.00		7.4947E-03
			40.00		7.7750E-03
			80.00		4.3288E-03
			130.00		2.6906E-03
		END_DATA
	END_SCAN  7
	BEGIN_SCAN  8
		TASK_NAME=MODE_INTERVAL
		PROGRAM=BeamAdjust 1.2
		MEAS_DATE=07-Oct-2010 13:53:57
		LINAC=A4
		MODALITY=X
		INPLANE_AXIS_DIR=TARGET_GUN
		CROSSPLANE_AXIS_DIR=LEFT_RIGHT
		DEPTH_AXIS_DIR=UP_DOWN
		ENERGY=6.00
		SSD=950.00
		WEDGE=None
		FIELD_INPLANE=100.00
		FIELD_CROSSPLANE=100.00
		FIELD_TYPE=RECTANGULAR
		GANTRY=0.00
		GANTRY_UPRIGHT_POSITION=0
		GANTRY_ROTATION=CW
		COLL_ANGLE=90.00
		COLL_OFFSET_INPLANE=0.00
		COLL_OFFSET_CROSSPLANE=0.00
		SCAN_DEVICE=STARCHECK
		ELECTROMETER=2D_ARRAY_INTERFACE
		DETECTOR=STARCHECK
		SCAN_CURVETYPE=INPLANE_PROFILE
		SCAN_DEPTH=0.00
		SCAN_OFFAXIS_CROSSPLANE=-130.00
		SCAN_ANGLE=0.00
		SCAN_DIAGONAL=NOT_DIAGONAL
		MEAS_PRESET=TIME_PRESET
		MEAS_TIME=10.000
		MEAS_UNIT=GY
		PRESSURE=1013.25
		TEMPERATURE=20.00
		NORM_TEMPERATURE=20.00
		CORRECTION_FACTOR=1.0000
		CORRECTIONS=AIR_DENSITY_CORR;
		BEGIN_DATA
			-130.00		2.7986E-03
			-125.00		2.6563E-03
			-120.00		3.0608E-03
			-115.00		3.9351E-03
			-110.00		3.3399E-03
			-105.00		3.4014E-03
			-100.00		4.0733E-03
			-95.00		4.3530E-03
			-90.00		4.7828E-03
			-85.00		4.3395E-03
			-80.00		4.6599E-03
			-75.00		4.9836E-03
			-70.00		4.9045E-03
			-65.00		4.8703E-03
			-60.00		5.1705E-03
			-55.00		5.7242E-03
			-50.00		4.5220E-03
			-45.00		5.4063E-03
			-40.00		5.0053E-03
			-35.00		5.6688E-03
			-30.00		5.6483E-03
			-25.00		5.3967E-03
			-20.00		5.1447E-03
			-15.00		5.1536E-03
			-10.00		5.4543E-03
			-5.00		6.4171E-03
			0.00		6.4528E-03
			5.00		6.6405E-03
			10.00		5.7796E-03
			15.00		5.7378E-03
			20.00		5.8383E-03
			25.00		5.6522E-03
			30.00		5.7946E-03
			35.00		5.9278E-03
			40.00		5.0255E-03
			45.00		5.1838E-03
			50.00		4.9700E-03
			55.00		4.6221E-03
			60.00		4.5791E-03
			65.00		4.3258E-03
			70.00		4.0043E-03
			75.00		4.2126E-03
			80.00		3.7959E-03
			85.00		3.6440E-03
			90.00		3.2990E-03
			95.00		3.9013E-03
			100.00		3.2222E-03
			105.00		2.8209E-03
			110.00		2.9377E-03
			115.00		2.6040E-03
			120.00		2.5394E-03
			125.00		2.7120E-03
			130.00		2.1440E-03
		END_DATA
	END_SCAN  8
	BEGIN_SCAN  9
		TASK_NAME=MODE_INTERVAL
		PROGRAM=BeamAdjust 1.2
		MEAS_DATE=07-Oct-2010 13:53:57
		LINAC=A4
		MODALITY=X
		INPLANE_AXIS_DIR=TARGET_GUN
		CROSSPLANE_AXIS_DIR=LEFT_RIGHT
		DEPTH_AXIS_DIR=UP_DOWN
		ENERGY=6.00
		SSD=950.00
		WEDGE=None
		FIELD_INPLANE=100.00
		FIELD_CROSSPLANE=100.00
		FIELD_TYPE=RECTANGULAR
		GANTRY=0.00
		GANTRY_UPRIGHT_POSITION=0
		GANTRY_ROTATION=CW
		COLL_ANGLE=90.00
		COLL_OFFSET_INPLANE=0.00
		COLL_OFFSET_CROSSPLANE=0.00
		SCAN_DEVICE=STARCHECK
		ELECTROMETER=2D_ARRAY_INTERFACE
		DETECTOR=STARCHECK
		SCAN_CURVETYPE=INPLANE_PROFILE
		SCAN_DEPTH=0.00
		SCAN_OFFAXIS_CROSSPLANE=-100.00
		SCAN_ANGLE=0.00
		SCAN_DIAGONAL=NOT_DIAGONAL
		MEAS_PRESET=TIME_PRESET
		MEAS_TIME=10.000
		MEAS_UNIT=GY
		PRESSURE=1013.25
		TEMPERATURE=20.00
		NORM_TEMPERATURE=20.00
		CORRECTION_FACTOR=1.0000
		CORRECTIONS=AIR_DENSITY_CORR;
		BEGIN_DATA
			-60.00		8.8199E-03
			-30.00		10.621E-03
			30.00		10.481E-03
			60.00		8.0390E-03
		END_DATA
	END_SCAN  9
	BEGIN_SCAN  10
		TASK_NAME=MODE_INTERVAL
		PROGRAM=BeamAdjust 1.2
		MEAS_DATE=07-Oct-2010 13:53:57
		LINAC=A4
		MODALITY=X
		INPLANE_AXIS_DIR=TARGET_GUN
		CROSSPLANE_AXIS_DIR=LEFT_RIGHT
		DEPTH_AXIS_DIR=UP_DOWN
		ENERGY=6.00
		SSD=950.00
		WEDGE=None
		FIELD_INPLANE=100.00
		FIELD_CROSSPLANE=100.00
		FIELD_TYPE=RECTANGULAR
		GANTRY=0.00
		GANTRY_UPRIGHT_POSITION=0
		GANTRY_ROTATION=CW
		COLL_ANGLE=90.00
		COLL_OFFSET_INPLANE=0.00
		COLL_OFFSET_CROSSPLANE=0.00
		SCAN_DEVICE=STARCHECK
		ELECTROMETER=2D_ARRAY_INTERFACE
		DETECTOR=STARCHECK
		SCAN_CURVETYPE=INPLANE_PROFILE
		SCAN_DEPTH=0.00
		SCAN_OFFAXIS_CROSSPLANE=-50.00
		SCAN_ANGLE=0.00
		SCAN_DIAGONAL=NOT_DIAGONAL
		MEAS_PRESET=TIME_PRESET
		MEAS_TIME=10.000
		MEAS_UNIT=GY
		PRESSURE=1013.25
		TEMPERATURE=20.00
		NORM_TEMPERATURE=20.00
		CORRECTION_FACTOR=1.0000
		CORRECTIONS=AIR_DENSITY_CORR;
		BEGIN_DATA
			-30.00		342.43E-03
			-15.00		339.11E-03
			15.00		328.75E-03
			30.00		317.68E-03
		END_DATA
	END_SCAN  10
	BEGIN_SCAN  11
		TASK_NAME=MODE_INTERVAL
		PROGRAM=BeamAdjust 1.2
		MEAS_DATE=07-Oct-2010 13:53:57
		LINAC=A4
		MODALITY=X
		INPLANE_AXIS_DIR=TARGET_GUN
		CROSSPLANE_AXIS_DIR=LEFT_RIGHT
		DEPTH_AXIS_DIR=UP_DOWN
		ENERGY=6.00
		SSD=950.00
		WEDGE=None
		FIELD_INPLANE=100.00
		FIELD_CROSSPLANE=100.00
		FIELD_TYPE=RECTANGULAR
		GANTRY=0.00
		GANTRY_UPRIGHT_POSITION=0
		GANTRY_ROTATION=CW
		COLL_ANGLE=90.00
		COLL_OFFSET_INPLANE=0.00
		COLL_OFFSET_CROSSPLANE=0.00
		SCAN_DEVICE=STARCHECK
		ELECTROMETER=2D_ARRAY_INTERFACE
		DETECTOR=STARCHECK
		SCAN_CURVETYPE=INPLANE_PROFILE
		SCAN_DEPTH=0.00
		SCAN_OFFAXIS_CROSSPLANE=0.00
		SCAN_ANGLE=0.00
		SCAN_DIAGONAL=NOT_DIAGONAL
		MEAS_PRESET=TIME_PRESET
		MEAS_TIME=10.000
		MEAS_UNIT=GY
		PRESSURE=1013.25
		TEMPERATURE=20.00
		NORM_TEMPERATURE=20.00
		CORRECTION_FACTOR=1.0000
		CORRECTIONS=AIR_DENSITY_CORR;
		BEGIN_DATA
			-126.00		9.3033E-03
			-123.00		9.1651E-03
			-120.00		10.188E-03
			-117.00		11.745E-03
			-114.00		11.709E-03
			-111.00		12.742E-03
			-108.00		13.659E-03
			-105.00		14.940E-03
			-102.00		16.624E-03
			-99.00		17.061E-03
			-96.00		18.081E-03
			-93.00		20.711E-03
			-90.00		21.706E-03
			-87.00		23.553E-03
			-84.00		25.429E-03
			-81.00		28.346E-03
			-78.00		30.441E-03
			-75.00		33.490E-03
			-72.00		36.857E-03
			-69.00		40.976E-03
			-66.00		45.942E-03
			-63.00		52.911E-03
			-60.00		62.984E-03
			-57.00		82.571E-03
			-54.00		133.53E-03
			-51.00		305.01E-03
			-48.00		556.00E-03
			-45.00		623.04E-03
			-42.00		642.40E-03
			-39.00		651.66E-03
			-36.00		657.24E-03
			-33.00		660.54E-03
			-30.00		664.06E-03
			-27.00		665.62E-03
			-24.00		664.77E-03
			-21.00		663.73E-03
			-18.00		670.78E-03
			-15.00		669.11E-03
			-12.00		670.08E-03
			-9.00		670.27E-03
			-6.00		667.52E-03
			0.00		667.02E-03
			6.00		671.73E-03
			9.00		671.24E-03
			12.00		670.64E-03
			15.00		667.94E-03
			18.00		663.87E-03
			21.00		663.66E-03
			24.00		660.31E-03
			27.00		661.54E-03
			30.00		657.41E-03
			33.00		655.96E-03
			36.00		652.74E-03
			39.00		641.90E-03
			42.00		629.97E-03
			45.00		596.51E-03
			48.00		433.75E-03
			51.00		188.86E-03
			54.00		98.197E-03
			57.00		69.900E-03
			60.00		57.032E-03
			63.00		49.012E-03
			66.00		43.605E-03
			69.00		39.054E-03
			72.00		35.207E-03
			75.00		31.955E-03
			78.00		28.367E-03
			81.00		26.421E-03
			84.00		24.543E-03
			87.00		22.812E-03
			90.00		21.427E-03
			93.00		19.421E-03
			96.00		17.954E-03
			99.00		16.724E-03
			102.00		15.028E-03
			105.00		14.100E-03
			108.00		14.011E-03
			111.00		12.751E-03
			114.00		12.032E-03
			117.00		11.481E-03
			120.00		10.364E-03
			123.00		9.4350E-03
			126.00		8.7623E-03
		END_DATA
	END_SCAN  11
	BEGIN_SCAN  12
		TASK_NAME=MODE_INTERVAL
		PROGRAM=BeamAdjust 1.2
		MEAS_DATE=07-Oct-2010 13:53:57
		LINAC=A4
		MODALITY=X
		INPLANE_AXIS_DIR=TARGET_GUN
		CROSSPLANE_AXIS_DIR=LEFT_RIGHT
		DEPTH_AXIS_DIR=UP_DOWN
		ENERGY=6.00
		SSD=950.00
		WEDGE=None
		FIELD_INPLANE=100.00
		FIELD_CROSSPLANE=100.00
		FIELD_TYPE=RECTANGULAR
		GANTRY=0.00
		GANTRY_UPRIGHT_POSITION=0
		GANTRY_ROTATION=CW
		COLL_ANGLE=90.00
		COLL_OFFSET_INPLANE=0.00
		COLL_OFFSET_CROSSPLANE=0.00
		SCAN_DEVICE=STARCHECK
		ELECTROMETER=2D_ARRAY_INTERFACE
		DETECTOR=STARCHECK
		SCAN_CURVETYPE=INPLANE_PROFILE
		SCAN_DEPTH=0.00
		SCAN_OFFAXIS_CROSSPLANE=50.00
		SCAN_ANGLE=0.00
		SCAN_DIAGONAL=NOT_DIAGONAL
		MEAS_PRESET=TIME_PRESET
		MEAS_TIME=10.000
		MEAS_UNIT=GY
		PRESSURE=1013.25
		TEMPERATURE=20.00
		NORM_TEMPERATURE=20.00
		CORRECTION_FACTOR=1.0000
		CORRECTIONS=AIR_DENSITY_CORR;
		BEGIN_DATA
			-30.00		382.10E-03
			-15.00		390.89E-03
			15.00		398.50E-03
			30.00		399.77E-03
		END_DATA
	END_SCAN  12
	BEGIN_SCAN  13
		TASK_NAME=MODE_INTERVAL
		PROGRAM=BeamAdjust 1.2
		MEAS_DATE=07-Oct-2010 13:53:57
		LINAC=A4
		MODALITY=X
		INPLANE_AXIS_DIR=TARGET_GUN
		CROSSPLANE_AXIS_DIR=LEFT_RIGHT
		DEPTH_AXIS_DIR=UP_DOWN
		ENERGY=6.00
		SSD=950.00
		WEDGE=None
		FIELD_INPLANE=100.00
		FIELD_CROSSPLANE=100.00
		FIELD_TYPE=RECTANGULAR
		GANTRY=0.00
		GANTRY_UPRIGHT_POSITION=0
		GANTRY_ROTATION=CW
		COLL_ANGLE=90.00
		COLL_OFFSET_INPLANE=0.00
		COLL_OFFSET_CROSSPLANE=0.00
		SCAN_DEVICE=STARCHECK
		ELECTROMETER=2D_ARRAY_INTERFACE
		DETECTOR=STARCHECK
		SCAN_CURVETYPE=INPLANE_PROFILE
		SCAN_DEPTH=0.00
		SCAN_OFFAXIS_CROSSPLANE=100.00
		SCAN_ANGLE=0.00
		SCAN_DIAGONAL=NOT_DIAGONAL
		MEAS_PRESET=TIME_PRESET
		MEAS_TIME=10.000
		MEAS_UNIT=GY
		PRESSURE=1013.25
		TEMPERATURE=20.00
		NORM_TEMPERATURE=20.00
		CORRECTION_FACTOR=1.0000
		CORRECTIONS=AIR_DENSITY_CORR;
		BEGIN_DATA
			-60.00		8.2877E-03
			-30.00		10.624E-03
			30.00		10.932E-03
			60.00		7.8315E-03
		END_DATA
	END_SCAN  13
	BEGIN_SCAN  14
		TASK_NAME=MODE_INTERVAL
		PROGRAM=BeamAdjust 1.2
		MEAS_DATE=07-Oct-2010 13:53:57
		LINAC=A4
		MODALITY=X
		INPLANE_AXIS_DIR=TARGET_GUN
		CROSSPLANE_AXIS_DIR=LEFT_RIGHT
		DEPTH_AXIS_DIR=UP_DOWN
		ENERGY=6.00
		SSD=950.00
		WEDGE=None
		FIELD_INPLANE=100.00
		FIELD_CROSSPLANE=100.00
		FIELD_TYPE=RECTANGULAR
		GANTRY=0.00
		GANTRY_UPRIGHT_POSITION=0
		GANTRY_ROTATION=CW
		COLL_ANGLE=90.00
		COLL_OFFSET_INPLANE=0.00
		COLL_OFFSET_CROSSPLANE=0.00
		SCAN_DEVICE=STARCHECK
		ELECTROMETER=2D_ARRAY_INTERFACE
		DETECTOR=STARCHECK
		SCAN_CURVETYPE=INPLANE_PROFILE
		SCAN_DEPTH=0.00
		SCAN_OFFAXIS_CROSSPLANE=130.00
		SCAN_ANGLE=0.00
		SCAN_DIAGONAL=NOT_DIAGONAL
		MEAS_PRESET=TIME_PRESET
		MEAS_TIME=10.000
		MEAS_UNIT=GY
		PRESSURE=1013.25
		TEMPERATURE=20.00
		NORM_TEMPERATURE=20.00
		CORRECTION_FACTOR=1.0000
		CORRECTIONS=AIR_DENSITY_CORR;
		BEGIN_DATA
			-130.00		2.0092E-03
			-125.00		2.8016E-03
			-120.00		2.4772E-03
			-115.00		2.8219E-03
			-110.00		2.9995E-03
			-105.00		3.4475E-03
			-100.00		3.3240E-03
			-95.00		3.1844E-03
			-90.00		3.1812E-03
			-85.00		3.9699E-03
			-80.00		3.6091E-03
			-75.00		3.9543E-03
			-70.00		4.1504E-03
			-65.00		4.2137E-03
			-60.00		4.9186E-03
			-55.00		4.4329E-03
			-50.00		4.3683E-03
			-45.00		5.1178E-03
			-40.00		5.0797E-03
			-35.00		5.7565E-03
			-30.00		5.8175E-03
			-25.00		5.2192E-03
			-20.00		5.5644E-03
			-15.00		5.6868E-03
			-10.00		4.9616E-03
			-5.00		5.8510E-03
			0.00		6.5696E-03
			5.00		6.0260E-03
			10.00		5.7931E-03
			15.00		5.7069E-03
			20.00		5.8233E-03
			25.00		5.4969E-03
			30.00		5.0207E-03
			35.00		5.7483E-03
			40.00		5.5165E-03
			45.00		5.1937E-03
			50.00		5.1451E-03
			55.00		5.0967E-03
			60.00		4.8112E-03
			65.00		4.1946E-03
			70.00		4.1392E-03
			75.00		3.8580E-03
			80.00		4.3393E-03
			85.00		3.6877E-03
			90.00		3.5550E-03
			95.00		3.3251E-03
			100.00		3.8051E-03
			105.00		2.9668E-03
			110.00		3.0685E-03
			115.00		2.6135E-03
			120.00		2.7389E-03
			125.00		2.0146E-03
			130.00		2.6906E-03
		END_DATA
	END_SCAN  14
	BEGIN_SCAN  15
		TASK_NAME=MODE_INTERVAL
		PROGRAM=BeamAdjust 1.2
		MEAS_DATE=07-Oct-2010 13:53:57
		LINAC=A4
		MODALITY=X
		INPLANE_AXIS_DIR=TARGET_GUN
		CROSSPLANE_AXIS_DIR=LEFT_RIGHT
		DEPTH_AXIS_DIR=UP_DOWN
		ENERGY=6.00
		SSD=950.00
		WEDGE=None
		FIELD_INPLANE=100.00
		FIELD_CROSSPLANE=100.00
		FIELD_TYPE=RECTANGULAR
		GANTRY=0.00
		GANTRY_UPRIGHT_POSITION=0
		GANTRY_ROTATION=CW
		COLL_ANGLE=90.00
		COLL_OFFSET_INPLANE=0.00
		COLL_OFFSET_CROSSPLANE=0.00
		SCAN_DEVICE=STARCHECK
		ELECTROMETER=2D_ARRAY_INTERFACE
		DETECTOR=STARCHECK
		SCAN_CURVETYPE=INPLANE_PROFILE
		SCAN_DEPTH=0.00
		SCAN_OFFAXIS_CROSSPLANE=0.00
		SCAN_ANGLE=0.00
		SCAN_DIAGONAL=FIRST_DIAGONAL
		MEAS_PRESET=TIME_PRESET
		MEAS_TIME=10.000
		MEAS_UNIT=GY
		PRESSURE=1013.25
		TEMPERATURE=20.00
		NORM_TEMPERATURE=20.00
		CORRECTION_FACTOR=1.0000
		CORRECTIONS=AIR_DENSITY_CORR;
		BEGIN_DATA
			-172.40		2.6074E-03
			-169.40		2.7735E-03
			-166.40		4.0282E-03
			-163.40		3.7778E-03
			-160.40		4.1116E-03
			-157.40		4.2346E-03
			-154.40		4.0058E-03
			-151.40		3.9273E-03
			-148.40		4.7127E-03
			-145.40		5.9074E-03
			-142.40		5.8036E-03
			-139.40		6.1810E-03
			-136.40		6.3967E-03
			-133.40		6.8664E-03
			-130.40		7.2123E-03
			-127.40		7.4402E-03
			-124.40		7.9195E-03
			-121.40		8.8753E-03
			-118.40		9.8302E-03
			-115.40		10.552E-03
			-112.40		11.295E-03
			-109.40		12.823E-03
			-106.40		13.462E-03
			-103.40		14.862E-03
			-100.40		15.499E-03
			-97.40		17.779E-03
			-94.40		19.701E-03
			-91.40		22.163E-03
			-88.40		24.791E-03
			-85.40		27.492E-03
			-82.40		31.813E-03
			-79.40		37.704E-03
			-76.40		48.551E-03
			-73.40		80.214E-03
			-70.40		195.04E-03
			-67.40		407.46E-03
			-64.40		550.89E-03
			-61.40		601.82E-03
			-58.40		622.35E-03
			-55.40		634.84E-03
			-52.40		642.05E-03
			-49.40		647.22E-03
			-46.40		649.79E-03
			-43.40		652.78E-03
			-40.40		655.73E-03
			-37.40		660.27E-03
			-34.40		660.42E-03
			-31.40		662.06E-03
			-28.40		660.39E-03
			-25.40		663.63E-03
			-22.40		663.76E-03
			-19.40		664.52E-03
			-16.40		668.20E-03
			-13.40		671.31E-03
			0.00		667.02E-03
			13.40		671.56E-03
			16.40		667.02E-03
			19.40		666.87E-03
			22.40		665.20E-03
			25.40		664.26E-03
			28.40		663.87E-03
			31.40		661.14E-03
			34.40		658.02E-03
			37.40		660.75E-03
			40.40		658.05E-03
			43.40		654.99E-03
			46.40		653.37E-03
			49.40		647.47E-03
			52.40		641.97E-03
			55.40		630.75E-03
			58.40		617.11E-03
			61.40		585.99E-03
			64.40		500.74E-03
			67.40		333.21E-03
			70.40		148.92E-03
			73.40		68.869E-03
			76.40		46.019E-03
			79.40		36.265E-03
			82.40		30.731E-03
			85.40		27.049E-03
			88.40		24.258E-03
			91.40		21.428E-03
			94.40		19.706E-03
			97.40		17.769E-03
			100.40		15.917E-03
			103.40		15.113E-03
			106.40		13.610E-03
			109.40		12.287E-03
			112.40		10.866E-03
			115.40		10.251E-03
			118.40		9.3143E-03
			121.40		8.5285E-03
			124.40		8.1658E-03
			127.40		7.9947E-03
			130.40		7.4034E-03
			133.40		6.2270E-03
			136.40		5.7301E-03
			139.40		5.3144E-03
			142.40		5.2661E-03
			145.40		4.8501E-03
			148.40		5.0602E-03
			151.40		3.9333E-03
			154.40		4.3580E-03
			157.40		3.8801E-03
			160.40		3.3611E-03
			163.40		3.1008E-03
			166.40		3.6367E-03
			169.40		3.5497E-03
			172.40		3.0922E-03
		END_DATA
	END_SCAN  15
	BEGIN_SCAN  16
		TASK_NAME=MODE_INTERVAL
		PROGRAM=BeamAdjust 1.2
		MEAS_DATE=07-Oct-2010 13:53:57
		LINAC=A4
		MODALITY=X
		INPLANE_AXIS_DIR=GUN_TARGET
		CROSSPLANE_AXIS_DIR=LEFT_RIGHT
		DEPTH_AXIS_DIR=UP_DOWN
		ENERGY=6.00
		SSD=950.00
		WEDGE=None
		FIELD_INPLANE=100.00
		FIELD_CROSSPLANE=100.00
		FIELD_TYPE=RECTANGULAR
		GANTRY=0.00
		GANTRY_UPRIGHT_POSITION=0
		GANTRY_ROTATION=CW
		COLL_ANGLE=90.00
		COLL_OFFSET_INPLANE=0.00
		COLL_OFFSET_CROSSPLANE=0.00
		SCAN_DEVICE=STARCHECK
		ELECTROMETER=2D_ARRAY_INTERFACE
		DETECTOR=STARCHECK
		SCAN_CURVETYPE=INPLANE_PROFILE
		SCAN_DEPTH=0.00
		SCAN_OFFAXIS_CROSSPLANE=0.00
		SCAN_ANGLE=0.00
		SCAN_DIAGONAL=SECOND_DIAGONAL
		MEAS_PRESET=TIME_PRESET
		MEAS_TIME=10.000
		MEAS_UNIT=GY
		PRESSURE=1013.25
		TEMPERATURE=20.00
		NORM_TEMPERATURE=20.00
		CORRECTION_FACTOR=1.0000
		CORRECTIONS=AIR_DENSITY_CORR;
		BEGIN_DATA
			-172.40		3.0704E-03
			-169.40		3.3145E-03
			-166.40		3.2422E-03
			-163.40		3.3610E-03
			-160.40		4.2421E-03
			-157.40		3.7860E-03
			-154.40		3.9781E-03
			-151.40		4.3539E-03
			-148.40		4.8281E-03
			-145.40		5.0880E-03
			-142.40		5.4897E-03
			-139.40		5.6240E-03
			-136.40		5.9378E-03
			-133.40		6.7193E-03
			-130.40		7.0436E-03
			-127.40		7.8905E-03
			-124.40		8.7754E-03
			-121.40		9.3942E-03
			-118.40		10.148E-03
			-115.40		10.187E-03
			-112.40		10.774E-03
			-109.40		12.311E-03
			-106.40		13.374E-03
			-103.40		14.603E-03
			-100.40		16.550E-03
			-97.40		17.964E-03
			-94.40		19.532E-03
			-91.40		22.038E-03
			-88.40		23.770E-03
			-85.40		27.231E-03
			-82.40		31.535E-03
			-79.40		38.141E-03
			-76.40		50.095E-03
			-73.40		83.627E-03
			-70.40		204.32E-03
			-67.40		420.20E-03
			-64.40		559.07E-03
			-61.40		607.74E-03
			-58.40		629.84E-03
			-55.40		639.74E-03
			-52.40		649.96E-03
			-49.40		654.16E-03
			-46.40		657.36E-03
			-43.40		660.60E-03
			-40.40		661.91E-03
			-37.40		665.91E-03
			-34.40		665.36E-03
			-31.40		665.56E-03
			-28.40		667.90E-03
			-25.40		667.21E-03
			-22.40		664.80E-03
			-19.40		668.50E-03
			-16.40		670.42E-03
			-13.40		672.65E-03
			0.00		667.02E-03
			13.40		670.50E-03
			16.40		668.10E-03
			19.40		664.34E-03
			22.40		661.99E-03
			25.40		662.07E-03
			28.40		661.14E-03
			31.40		658.67E-03
			34.40		656.18E-03
			37.40		655.27E-03
			40.40		653.67E-03
			43.40		651.53E-03
			46.40		649.77E-03
			49.40		644.97E-03
			52.40		636.55E-03
			55.40		627.24E-03
			58.40		613.96E-03
			61.40		581.49E-03
			64.40		494.63E-03
			67.40		302.92E-03
			70.40		126.21E-03
			73.40		62.153E-03
			76.40		43.143E-03
			79.40		34.379E-03
			82.40		30.442E-03
			85.40		26.556E-03
			88.40		23.603E-03
			91.40		21.586E-03
			94.40		19.348E-03
			97.40		17.523E-03
			100.40		15.445E-03
			103.40		14.076E-03
			106.40		13.105E-03
			109.40		11.986E-03
			112.40		11.746E-03
			115.40		10.091E-03
			118.40		9.3329E-03
			121.40		8.6288E-03
			124.40		7.6907E-03
			127.40		7.5345E-03
			130.40		7.4861E-03
			133.40		6.5865E-03
			136.40		5.8122E-03
			139.40		6.3261E-03
			142.40		5.5369E-03
			145.40		5.5769E-03
			148.40		4.8546E-03
			151.40		4.3864E-03
			154.40		4.6551E-03
			157.40		4.2409E-03
			160.40		3.4865E-03
			163.40		3.9485E-03
			166.40		3.6004E-03
			169.40		3.2320E-03
			172.40		2.4445E-03
		END_DATA
	END_SCAN  16
END_SCAN_DATA
