BEGIN_SCAN_DATA
	FORMAT=CC-Export V1.9                  
	FILE_CREATION_DATE=07-Oct-2010 13:53:27
	LAST_MODIFIED=07-Oct-2010 13:53:27
	BEGIN_SCAN  1
		TASK_NAME=MODE_INTERVAL
		PROGRAM=BeamAdjust 1.2
		MEAS_DATE=07-Oct-2010 13:53:27
		LINAC=A4
		MODALITY=X
		INPLANE_AXIS_DIR=TARGET_GUN
		CROSSPLANE_AXIS_DIR=LEFT_RIGHT
		DEPTH_AXIS_DIR=UP_DOWN
		ENERGY=6.00
		SSD=950.00
		WEDGE=None
		FIELD_INPLANE=100.00
		FIELD_CROSSPLANE=100.00
		FIELD_TYPE=RECTANGULAR
		GANTRY=0.00
		GANTRY_UPRIGHT_POSITION=0
		GANTRY_ROTATION=CW
		COLL_ANGLE=90.00
		COLL_OFFSET_INPLANE=0.00
		COLL_OFFSET_CROSSPLANE=0.00
		SCAN_DEVICE=STARCHECK
		ELECTROMETER=2D_ARRAY_INTERFACE
		DETECTOR=STARCHECK
		SCAN_CURVETYPE=CROSSPLANE_PROFILE
		SCAN_DEPTH=0.00
		SCAN_OFFAXIS_INPLANE=-130.00
		SCAN_ANGLE=0.00
		SCAN_DIAGONAL=NOT_DIAGONAL
		MEAS_PRESET=TIME_PRESET
		MEAS_TIME=10.000
		MEAS_UNIT=GY
		PRESSURE=1013.25
		TEMPERATURE=20.00
		NORM_TEMPERATURE=20.00
		CORRECTION_FACTOR=1.0000
		CORRECTIONS=AIR_DENSITY_CORR;
		BEGIN_DATA
			-130.00		2.7080E-03
			-80.00		4.8216E-03
			-40.00		7.1964E-03
			40.00		7.5416E-03
			80.00		3.8264E-03
			130.00		2.4760E-03
		END_DATA
	END_SCAN  1
	BEGIN_SCAN  2
		TASK_NAME=MODE_INTERVAL
		PROGRAM=BeamAdjust 1.2
		MEAS_DATE=07-Oct-2010 13:53:27
		LINAC=A4
		MODALITY=X
		INPLANE_AXIS_DIR=TARGET_GUN
		CROSSPLANE_AXIS_DIR=LEFT_RIGHT
		DEPTH_AXIS_DIR=UP_DOWN
		ENERGY=6.00
		SSD=950.00
		WEDGE=None
		FIELD_INPLANE=100.00
		FIELD_CROSSPLANE=100.00
		FIELD_TYPE=RECTANGULAR
		GANTRY=0.00
		GANTRY_UPRIGHT_POSITION=0
		GANTRY_ROTATION=CW
		COLL_ANGLE=90.00
		COLL_OFFSET_INPLANE=0.00
		COLL_OFFSET_CROSSPLANE=0.00
		SCAN_DEVICE=STARCHECK
		ELECTROMETER=2D_ARRAY_INTERFACE
		DETECTOR=STARCHECK
		SCAN_CURVETYPE=CROSSPLANE_PROFILE
		SCAN_DEPTH=0.00
		SCAN_OFFAXIS_INPLANE=-100.00
		SCAN_ANGLE=0.00
		SCAN_DIAGONAL=NOT_DIAGONAL
		MEAS_PRESET=TIME_PRESET
		MEAS_TIME=10.000
		MEAS_UNIT=GY
		PRESSURE=1013.25
		TEMPERATURE=20.00
		NORM_TEMPERATURE=20.00
		CORRECTION_FACTOR=1.0000
		CORRECTIONS=AIR_DENSITY_CORR;
		BEGIN_DATA
			-60.00		10.378E-03
			-30.00		14.987E-03
			30.00		15.303E-03
			60.00		10.450E-03
		END_DATA
	END_SCAN  2
	BEGIN_SCAN  3
		TASK_NAME=MODE_INTERVAL
		PROGRAM=BeamAdjust 1.2
		MEAS_DATE=07-Oct-2010 13:53:27
		LINAC=A4
		MODALITY=X
		INPLANE_AXIS_DIR=TARGET_GUN
		CROSSPLANE_AXIS_DIR=LEFT_RIGHT
		DEPTH_AXIS_DIR=UP_DOWN
		ENERGY=6.00
		SSD=950.00
		WEDGE=None
		FIELD_INPLANE=100.00
		FIELD_CROSSPLANE=100.00
		FIELD_TYPE=RECTANGULAR
		GANTRY=0.00
		GANTRY_UPRIGHT_POSITION=0
		GANTRY_ROTATION=CW
		COLL_ANGLE=90.00
		COLL_OFFSET_INPLANE=0.00
		COLL_OFFSET_CROSSPLANE=0.00
		SCAN_DEVICE=STARCHECK
		ELECTROMETER=2D_ARRAY_INTERFACE
		DETECTOR=STARCHECK
		SCAN_CURVETYPE=CROSSPLANE_PROFILE
		SCAN_DEPTH=0.00
		SCAN_OFFAXIS_INPLANE=-50.00
		SCAN_ANGLE=0.00
		SCAN_DIAGONAL=NOT_DIAGONAL
		MEAS_PRESET=TIME_PRESET
		MEAS_TIME=10.000
		MEAS_UNIT=GY
		PRESSURE=1013.25
		TEMPERATURE=20.00
		NORM_TEMPERATURE=20.00
		CORRECTION_FACTOR=1.0000
		CORRECTIONS=AIR_DENSITY_CORR;
		BEGIN_DATA
			-30.00		391.09E-03
			-15.00		353.02E-03
			15.00		378.68E-03
			30.00		390.75E-03
		END_DATA
	END_SCAN  3
	BEGIN_SCAN  4
		TASK_NAME=MODE_INTERVAL
		PROGRAM=BeamAdjust 1.2
		MEAS_DATE=07-Oct-2010 13:53:27
		LINAC=A4
		MODALITY=X
		INPLANE_AXIS_DIR=TARGET_GUN
		CROSSPLANE_AXIS_DIR=LEFT_RIGHT
		DEPTH_AXIS_DIR=UP_DOWN
		ENERGY=6.00
		SSD=950.00
		WEDGE=None
		FIELD_INPLANE=100.00
		FIELD_CROSSPLANE=100.00
		FIELD_TYPE=RECTANGULAR
		GANTRY=0.00
		GANTRY_UPRIGHT_POSITION=0
		GANTRY_ROTATION=CW
		COLL_ANGLE=90.00
		COLL_OFFSET_INPLANE=0.00
		COLL_OFFSET_CROSSPLANE=0.00
		SCAN_DEVICE=STARCHECK
		ELECTROMETER=2D_ARRAY_INTERFACE
		DETECTOR=STARCHECK
		SCAN_CURVETYPE=CROSSPLANE_PROFILE
		SCAN_DEPTH=0.00
		SCAN_OFFAXIS_INPLANE=0.00
		SCAN_ANGLE=0.00
		SCAN_DIAGONAL=NOT_DIAGONAL
		MEAS_PRESET=TIME_PRESET
		MEAS_TIME=10.000
		MEAS_UNIT=GY
		PRESSURE=1013.25
		TEMPERATURE=20.00
		NORM_TEMPERATURE=20.00
		CORRECTION_FACTOR=1.0000
		CORRECTIONS=AIR_DENSITY_CORR;
		BEGIN_DATA
			-126.00		6.4872E-03
			-123.00		7.7355E-03
			-120.00		8.0874E-03
			-117.00		8.3880E-03
			-114.00		9.0084E-03
			-111.00		9.7585E-03
			-108.00		10.557E-03
			-105.00		11.182E-03
			-102.00		11.925E-03
			-99.00		13.038E-03
			-96.00		13.681E-03
			-93.00		15.054E-03
			-90.00		16.380E-03
			-87.00		17.765E-03
			-84.00		19.717E-03
			-81.00		21.183E-03
			-78.00		23.518E-03
			-75.00		26.410E-03
			-72.00		29.108E-03
			-69.00		33.312E-03
			-66.00		38.280E-03
			-63.00		43.418E-03
			-60.00		51.741E-03
			-57.00		65.742E-03
			-54.00		95.711E-03
			-51.00		203.08E-03
			-48.00		496.73E-03
			-45.00		604.71E-03
			-42.00		631.29E-03
			-39.00		646.31E-03
			-36.00		653.21E-03
			-33.00		653.77E-03
			-30.00		656.19E-03
			-27.00		659.21E-03
			-24.00		661.88E-03
			-21.00		661.16E-03
			-18.00		667.34E-03
			-15.00		667.25E-03
			-12.00		667.16E-03
			-9.00		669.74E-03
			-6.00		668.94E-03
			0.00		667.76E-03
			6.00		670.77E-03
			9.00		670.35E-03
			12.00		668.09E-03
			15.00		667.67E-03
			18.00		666.82E-03
			21.00		664.86E-03
			24.00		661.65E-03
			27.00		666.04E-03
			30.00		663.91E-03
			33.00		661.79E-03
			36.00		659.01E-03
			39.00		653.68E-03
			42.00		644.38E-03
			45.00		625.95E-03
			48.00		571.22E-03
			51.00		328.33E-03
			54.00		122.47E-03
			57.00		75.748E-03
			60.00		57.062E-03
			63.00		47.052E-03
			66.00		39.700E-03
			69.00		35.076E-03
			72.00		30.751E-03
			75.00		27.611E-03
			78.00		24.641E-03
			81.00		22.881E-03
			84.00		20.630E-03
			87.00		18.428E-03
			90.00		17.475E-03
			93.00		15.709E-03
			96.00		13.683E-03
			99.00		13.193E-03
			102.00		12.136E-03
			105.00		11.191E-03
			108.00		10.746E-03
			111.00		10.166E-03
			114.00		9.1748E-03
			117.00		8.3776E-03
			120.00		7.4722E-03
			123.00		7.5430E-03
			126.00		7.3550E-03
		END_DATA
	END_SCAN  4
	BEGIN_SCAN  5
		TASK_NAME=MODE_INTERVAL
		PROGRAM=BeamAdjust 1.2
		MEAS_DATE=07-Oct-2010 13:53:27
		LINAC=A4
		MODALITY=X
		INPLANE_AXIS_DIR=TARGET_GUN
		CROSSPLANE_AXIS_DIR=LEFT_RIGHT
		DEPTH_AXIS_DIR=UP_DOWN
		ENERGY=6.00
		SSD=950.00
		WEDGE=None
		FIELD_INPLANE=100.00
		FIELD_CROSSPLANE=100.00
		FIELD_TYPE=RECTANGULAR
		GANTRY=0.00
		GANTRY_UPRIGHT_POSITION=0
		GANTRY_ROTATION=CW
		COLL_ANGLE=90.00
		COLL_OFFSET_INPLANE=0.00
		COLL_OFFSET_CROSSPLANE=0.00
		SCAN_DEVICE=STARCHECK
		ELECTROMETER=2D_ARRAY_INTERFACE
		DETECTOR=STARCHECK
		SCAN_CURVETYPE=CROSSPLANE_PROFILE
		SCAN_DEPTH=0.00
		SCAN_OFFAXIS_INPLANE=50.00
		SCAN_ANGLE=0.00
		SCAN_DIAGONAL=NOT_DIAGONAL
		MEAS_PRESET=TIME_PRESET
		MEAS_TIME=10.000
		MEAS_UNIT=GY
		PRESSURE=1013.25
		TEMPERATURE=20.00
		NORM_TEMPERATURE=20.00
		CORRECTION_FACTOR=1.0000
		CORRECTIONS=AIR_DENSITY_CORR;
		BEGIN_DATA
			-30.00		273.12E-03
			-15.00		287.25E-03
			15.00		257.16E-03
			30.00		264.74E-03
		END_DATA
	END_SCAN  5
	BEGIN_SCAN  6
		TASK_NAME=MODE_INTERVAL
		PROGRAM=BeamAdjust 1.2
		MEAS_DATE=07-Oct-2010 13:53:27
		LINAC=A4
		MODALITY=X
		INPLANE_AXIS_DIR=TARGET_GUN
		CROSSPLANE_AXIS_DIR=LEFT_RIGHT
		DEPTH_AXIS_DIR=UP_DOWN
		ENERGY=6.00
		SSD=950.00
		WEDGE=None
		FIELD_INPLANE=100.00
		FIELD_CROSSPLANE=100.00
		FIELD_TYPE=RECTANGULAR
		GANTRY=0.00
		GANTRY_UPRIGHT_POSITION=0
		GANTRY_ROTATION=CW
		COLL_ANGLE=90.00
		COLL_OFFSET_INPLANE=0.00
		COLL_OFFSET_CROSSPLANE=0.00
		SCAN_DEVICE=STARCHECK
		ELECTROMETER=2D_ARRAY_INTERFACE
		DETECTOR=STARCHECK
		SCAN_CURVETYPE=CROSSPLANE_PROFILE
		SCAN_DEPTH=0.00
		SCAN_OFFAXIS_INPLANE=100.00
		SCAN_ANGLE=0.00
		SCAN_DIAGONAL=NOT_DIAGONAL
		MEAS_PRESET=TIME_PRESET
		MEAS_TIME=10.000
		MEAS_UNIT=GY
		PRESSURE=1013.25
		TEMPERATURE=20.00
		NORM_TEMPERATURE=20.00
		CORRECTION_FACTOR=1.0000
		CORRECTIONS=AIR_DENSITY_CORR;
		BEGIN_DATA
			-60.00		10.545E-03
			-30.00		14.770E-03
			30.00		15.306E-03
			60.00		9.2646E-03
		END_DATA
	END_SCAN  6
	BEGIN_SCAN  7
		TASK_NAME=MODE_INTERVAL
		PROGRAM=BeamAdjust 1.2
		MEAS_DATE=07-Oct-2010 13:53:27
		LINAC=A4
		MODALITY=X
		INPLANE_AXIS_DIR=TARGET_GUN
		CROSSPLANE_AXIS_DIR=LEFT_RIGHT
		DEPTH_AXIS_DIR=UP_DOWN
		ENERGY=6.00
		SSD=950.00
		WEDGE=None
		FIELD_INPLANE=100.00
		FIELD_CROSSPLANE=100.00
		FIELD_TYPE=RECTANGULAR
		GANTRY=0.00
		GANTRY_UPRIGHT_POSITION=0
		GANTRY_ROTATION=CW
		COLL_ANGLE=90.00
		COLL_OFFSET_INPLANE=0.00
		COLL_OFFSET_CROSSPLANE=0.00
		SCAN_DEVICE=STARCHECK
		ELECTROMETER=2D_ARRAY_INTERFACE
		DETECTOR=STARCHECK
		SCAN_CURVETYPE=CROSSPLANE_PROFILE
		SCAN_DEPTH=0.00
		SCAN_OFFAXIS_INPLANE=130.00
		SCAN_ANGLE=0.00
		SCAN_DIAGONAL=NOT_DIAGONAL
		MEAS_PRESET=TIME_PRESET
		MEAS_TIME=10.000
		MEAS_UNIT=GY
		PRESSURE=1013.25
		TEMPERATURE=20.00
		NORM_TEMPERATURE=20.00
		CORRECTION_FACTOR=1.0000
		CORRECTIONS=AIR_DENSITY_CORR;
		BEGIN_DATA
			-130.00		1.9262E-03
			-80.00		4.5300E-03
			-40.00		7.5246E-03
			40.00		7.4607E-03
			80.00		4.2574E-03
			130.00		2.5827E-03
		END_DATA
	END_SCAN  7
	BEGIN_SCAN  8
		TASK_NAME=MODE_INTERVAL
		PROGRAM=BeamAdjust 1.2
		MEAS_DATE=07-Oct-2010 13:53:27
		LINAC=A4
		MODALITY=X
		INPLANE_AXIS_DIR=TARGET_GUN
		CROSSPLANE_AXIS_DIR=LEFT_RIGHT
		DEPTH_AXIS_DIR=UP_DOWN
		ENERGY=6.00
		SSD=950.00
		WEDGE=None
		FIELD_INPLANE=100.00
		FIELD_CROSSPLANE=100.00
		FIELD_TYPE=RECTANGULAR
		GANTRY=0.00
		GANTRY_UPRIGHT_POSITION=0
		GANTRY_ROTATION=CW
		COLL_ANGLE=90.00
		COLL_OFFSET_INPLANE=0.00
		COLL_OFFSET_CROSSPLANE=0.00
		SCAN_DEVICE=STARCHECK
		ELECTROMETER=2D_ARRAY_INTERFACE
		DETECTOR=STARCHECK
		SCAN_CURVETYPE=INPLANE_PROFILE
		SCAN_DEPTH=0.00
		SCAN_OFFAXIS_CROSSPLANE=-130.00
		SCAN_ANGLE=0.00
		SCAN_DIAGONAL=NOT_DIAGONAL
		MEAS_PRESET=TIME_PRESET
		MEAS_TIME=10.000
		MEAS_UNIT=GY
		PRESSURE=1013.25
		TEMPERATURE=20.00
		NORM_TEMPERATURE=20.00
		CORRECTION_FACTOR=1.0000
		CORRECTIONS=AIR_DENSITY_CORR;
		BEGIN_DATA
			-130.00		2.7080E-03
			-125.00		2.4731E-03
			-120.00		3.5514E-03
			-115.00		3.2933E-03
			-110.00		3.4963E-03
			-105.00		3.6291E-03
			-100.00		3.8874E-03
			-95.00		4.4302E-03
			-90.00		4.5889E-03
			-85.00		4.2893E-03
			-80.00		4.4567E-03
			-75.00		5.2268E-03
			-70.00		4.8200E-03
			-65.00		5.0863E-03
			-60.00		5.2073E-03
			-55.00		6.0609E-03
			-50.00		4.9800E-03
			-45.00		4.7101E-03
			-40.00		5.0378E-03
			-35.00		5.4159E-03
			-30.00		5.5411E-03
			-25.00		5.1698E-03
			-20.00		5.4306E-03
			-15.00		5.1284E-03
			-10.00		5.4057E-03
			-5.00		6.3344E-03
			0.00		6.0849E-03
			5.00		6.8044E-03
			10.00		5.8478E-03
			15.00		5.8134E-03
			20.00		6.1056E-03
			25.00		5.1655E-03
			30.00		5.6095E-03
			35.00		5.5225E-03
			40.00		5.0626E-03
			45.00		4.9485E-03
			50.00		5.1931E-03
			55.00		4.5463E-03
			60.00		4.8477E-03
			65.00		4.1141E-03
			70.00		4.2970E-03
			75.00		3.9673E-03
			80.00		3.9727E-03
			85.00		3.9484E-03
			90.00		3.6718E-03
			95.00		3.2638E-03
			100.00		3.1774E-03
			105.00		2.7761E-03
			110.00		2.7275E-03
			115.00		2.7748E-03
			120.00		2.6866E-03
			125.00		3.1355E-03
			130.00		1.9262E-03
		END_DATA
	END_SCAN  8
	BEGIN_SCAN  9
		TASK_NAME=MODE_INTERVAL
		PROGRAM=BeamAdjust 1.2
		MEAS_DATE=07-Oct-2010 13:53:27
		LINAC=A4
		MODALITY=X
		INPLANE_AXIS_DIR=TARGET_GUN
		CROSSPLANE_AXIS_DIR=LEFT_RIGHT
		DEPTH_AXIS_DIR=UP_DOWN
		ENERGY=6.00
		SSD=950.00
		WEDGE=None
		FIELD_INPLANE=100.00
		FIELD_CROSSPLANE=100.00
		FIELD_TYPE=RECTANGULAR
		GANTRY=0.00
		GANTRY_UPRIGHT_POSITION=0
		GANTRY_ROTATION=CW
		COLL_ANGLE=90.00
		COLL_OFFSET_INPLANE=0.00
		COLL_OFFSET_CROSSPLANE=0.00
		SCAN_DEVICE=STARCHECK
		ELECTROMETER=2D_ARRAY_INTERFACE
		DETECTOR=STARCHECK
		SCAN_CURVETYPE=INPLANE_PROFILE
		SCAN_DEPTH=0.00
		SCAN_OFFAXIS_CROSSPLANE=-100.00
		SCAN_ANGLE=0.00
		SCAN_DIAGONAL=NOT_DIAGONAL
		MEAS_PRESET=TIME_PRESET
		MEAS_TIME=10.000
		MEAS_UNIT=GY
		PRESSURE=1013.25
		TEMPERATURE=20.00
		NORM_TEMPERATURE=20.00
		CORRECTION_FACTOR=1.0000
		CORRECTIONS=AIR_DENSITY_CORR;
		BEGIN_DATA
			-60.00		8.6215E-03
			-30.00		10.441E-03
			30.00		10.344E-03
			60.00		8.0078E-03
		END_DATA
	END_SCAN  9
	BEGIN_SCAN  10
		TASK_NAME=MODE_INTERVAL
		PROGRAM=BeamAdjust 1.2
		MEAS_DATE=07-Oct-2010 13:53:27
		LINAC=A4
		MODALITY=X
		INPLANE_AXIS_DIR=TARGET_GUN
		CROSSPLANE_AXIS_DIR=LEFT_RIGHT
		DEPTH_AXIS_DIR=UP_DOWN
		ENERGY=6.00
		SSD=950.00
		WEDGE=None
		FIELD_INPLANE=100.00
		FIELD_CROSSPLANE=100.00
		FIELD_TYPE=RECTANGULAR
		GANTRY=0.00
		GANTRY_UPRIGHT_POSITION=0
		GANTRY_ROTATION=CW
		COLL_ANGLE=90.00
		COLL_OFFSET_INPLANE=0.00
		COLL_OFFSET_CROSSPLANE=0.00
		SCAN_DEVICE=STARCHECK
		ELECTROMETER=2D_ARRAY_INTERFACE
		DETECTOR=STARCHECK
		SCAN_CURVETYPE=INPLANE_PROFILE
		SCAN_DEPTH=0.00
		SCAN_OFFAXIS_CROSSPLANE=-50.00
		SCAN_ANGLE=0.00
		SCAN_DIAGONAL=NOT_DIAGONAL
		MEAS_PRESET=TIME_PRESET
		MEAS_TIME=10.000
		MEAS_UNIT=GY
		PRESSURE=1013.25
		TEMPERATURE=20.00
		NORM_TEMPERATURE=20.00
		CORRECTION_FACTOR=1.0000
		CORRECTIONS=AIR_DENSITY_CORR;
		BEGIN_DATA
			-30.00		316.00E-03
			-15.00		313.32E-03
			15.00		302.71E-03
			30.00		291.96E-03
		END_DATA
	END_SCAN  10
	BEGIN_SCAN  11
		TASK_NAME=MODE_INTERVAL
		PROGRAM=BeamAdjust 1.2
		MEAS_DATE=07-Oct-2010 13:53:27
		LINAC=A4
		MODALITY=X
		INPLANE_AXIS_DIR=TARGET_GUN
		CROSSPLANE_AXIS_DIR=LEFT_RIGHT
		DEPTH_AXIS_DIR=UP_DOWN
		ENERGY=6.00
		SSD=950.00
		WEDGE=None
		FIELD_INPLANE=100.00
		FIELD_CROSSPLANE=100.00
		FIELD_TYPE=RECTANGULAR
		GANTRY=0.00
		GANTRY_UPRIGHT_POSITION=0
		GANTRY_ROTATION=CW
		COLL_ANGLE=90.00
		COLL_OFFSET_INPLANE=0.00
		COLL_OFFSET_CROSSPLANE=0.00
		SCAN_DEVICE=STARCHECK
		ELECTROMETER=2D_ARRAY_INTERFACE
		DETECTOR=STARCHECK
		SCAN_CURVETYPE=INPLANE_PROFILE
		SCAN_DEPTH=0.00
		SCAN_OFFAXIS_CROSSPLANE=0.00
		SCAN_ANGLE=0.00
		SCAN_DIAGONAL=NOT_DIAGONAL
		MEAS_PRESET=TIME_PRESET
		MEAS_TIME=10.000
		MEAS_UNIT=GY
		PRESSURE=1013.25
		TEMPERATURE=20.00
		NORM_TEMPERATURE=20.00
		CORRECTION_FACTOR=1.0000
		CORRECTIONS=AIR_DENSITY_CORR;
		BEGIN_DATA
			-126.00		9.2973E-03
			-123.00		8.9001E-03
			-120.00		10.577E-03
			-117.00		11.525E-03
			-114.00		11.557E-03
			-111.00		12.319E-03
			-108.00		14.004E-03
			-105.00		15.195E-03
			-102.00		16.210E-03
			-99.00		16.461E-03
			-96.00		18.636E-03
			-93.00		20.622E-03
			-90.00		21.823E-03
			-87.00		23.670E-03
			-84.00		25.987E-03
			-81.00		28.183E-03
			-78.00		30.445E-03
			-75.00		33.434E-03
			-72.00		36.912E-03
			-69.00		40.783E-03
			-66.00		45.759E-03
			-63.00		52.981E-03
			-60.00		62.619E-03
			-57.00		82.453E-03
			-54.00		133.42E-03
			-51.00		305.37E-03
			-48.00		556.74E-03
			-45.00		623.05E-03
			-42.00		643.53E-03
			-39.00		652.27E-03
			-36.00		657.75E-03
			-33.00		661.13E-03
			-30.00		664.90E-03
			-27.00		666.24E-03
			-24.00		665.19E-03
			-21.00		664.52E-03
			-18.00		670.91E-03
			-15.00		669.66E-03
			-12.00		670.57E-03
			-9.00		670.92E-03
			-6.00		668.14E-03
			0.00		667.76E-03
			6.00		672.13E-03
			9.00		671.42E-03
			12.00		670.88E-03
			15.00		668.14E-03
			18.00		664.16E-03
			21.00		663.86E-03
			24.00		660.34E-03
			27.00		662.16E-03
			30.00		658.06E-03
			33.00		655.84E-03
			36.00		653.41E-03
			39.00		642.28E-03
			42.00		630.47E-03
			45.00		597.03E-03
			48.00		434.40E-03
			51.00		189.08E-03
			54.00		99.055E-03
			57.00		70.298E-03
			60.00		56.820E-03
			63.00		49.048E-03
			66.00		43.895E-03
			69.00		38.826E-03
			72.00		35.569E-03
			75.00		31.898E-03
			78.00		28.612E-03
			81.00		26.349E-03
			84.00		24.300E-03
			87.00		22.863E-03
			90.00		21.167E-03
			93.00		19.206E-03
			96.00		18.078E-03
			99.00		16.838E-03
			102.00		15.206E-03
			105.00		13.855E-03
			108.00		13.738E-03
			111.00		12.821E-03
			114.00		12.086E-03
			117.00		10.723E-03
			120.00		10.489E-03
			123.00		9.9206E-03
			126.00		8.6123E-03
		END_DATA
	END_SCAN  11
	BEGIN_SCAN  12
		TASK_NAME=MODE_INTERVAL
		PROGRAM=BeamAdjust 1.2
		MEAS_DATE=07-Oct-2010 13:53:27
		LINAC=A4
		MODALITY=X
		INPLANE_AXIS_DIR=TARGET_GUN
		CROSSPLANE_AXIS_DIR=LEFT_RIGHT
		DEPTH_AXIS_DIR=UP_DOWN
		ENERGY=6.00
		SSD=950.00
		WEDGE=None
		FIELD_INPLANE=100.00
		FIELD_CROSSPLANE=100.00
		FIELD_TYPE=RECTANGULAR
		GANTRY=0.00
		GANTRY_UPRIGHT_POSITION=0
		GANTRY_ROTATION=CW
		COLL_ANGLE=90.00
		COLL_OFFSET_INPLANE=0.00
		COLL_OFFSET_CROSSPLANE=0.00
		SCAN_DEVICE=STARCHECK
		ELECTROMETER=2D_ARRAY_INTERFACE
		DETECTOR=STARCHECK
		SCAN_CURVETYPE=INPLANE_PROFILE
		SCAN_DEPTH=0.00
		SCAN_OFFAXIS_CROSSPLANE=50.00
		SCAN_ANGLE=0.00
		SCAN_DIAGONAL=NOT_DIAGONAL
		MEAS_PRESET=TIME_PRESET
		MEAS_TIME=10.000
		MEAS_UNIT=GY
		PRESSURE=1013.25
		TEMPERATURE=20.00
		NORM_TEMPERATURE=20.00
		CORRECTION_FACTOR=1.0000
		CORRECTIONS=AIR_DENSITY_CORR;
		BEGIN_DATA
			-30.00		408.73E-03
			-15.00		417.42E-03
			15.00		424.82E-03
			30.00		426.28E-03
		END_DATA
	END_SCAN  12
	BEGIN_SCAN  13
		TASK_NAME=MODE_INTERVAL
		PROGRAM=BeamAdjust 1.2
		MEAS_DATE=07-Oct-2010 13:53:27
		LINAC=A4
		MODALITY=X
		INPLANE_AXIS_DIR=TARGET_GUN
		CROSSPLANE_AXIS_DIR=LEFT_RIGHT
		DEPTH_AXIS_DIR=UP_DOWN
		ENERGY=6.00
		SSD=950.00
		WEDGE=None
		FIELD_INPLANE=100.00
		FIELD_CROSSPLANE=100.00
		FIELD_TYPE=RECTANGULAR
		GANTRY=0.00
		GANTRY_UPRIGHT_POSITION=0
		GANTRY_ROTATION=CW
		COLL_ANGLE=90.00
		COLL_OFFSET_INPLANE=0.00
		COLL_OFFSET_CROSSPLANE=0.00
		SCAN_DEVICE=STARCHECK
		ELECTROMETER=2D_ARRAY_INTERFACE
		DETECTOR=STARCHECK
		SCAN_CURVETYPE=INPLANE_PROFILE
		SCAN_DEPTH=0.00
		SCAN_OFFAXIS_CROSSPLANE=100.00
		SCAN_ANGLE=0.00
		SCAN_DIAGONAL=NOT_DIAGONAL
		MEAS_PRESET=TIME_PRESET
		MEAS_TIME=10.000
		MEAS_UNIT=GY
		PRESSURE=1013.25
		TEMPERATURE=20.00
		NORM_TEMPERATURE=20.00
		CORRECTION_FACTOR=1.0000
		CORRECTIONS=AIR_DENSITY_CORR;
		BEGIN_DATA
			-60.00		8.3457E-03
			-30.00		10.808E-03
			30.00		11.273E-03
			60.00		7.8761E-03
		END_DATA
	END_SCAN  13
	BEGIN_SCAN  14
		TASK_NAME=MODE_INTERVAL
		PROGRAM=BeamAdjust 1.2
		MEAS_DATE=07-Oct-2010 13:53:27
		LINAC=A4
		MODALITY=X
		INPLANE_AXIS_DIR=TARGET_GUN
		CROSSPLANE_AXIS_DIR=LEFT_RIGHT
		DEPTH_AXIS_DIR=UP_DOWN
		ENERGY=6.00
		SSD=950.00
		WEDGE=None
		FIELD_INPLANE=100.00
		FIELD_CROSSPLANE=100.00
		FIELD_TYPE=RECTANGULAR
		GANTRY=0.00
		GANTRY_UPRIGHT_POSITION=0
		GANTRY_ROTATION=CW
		COLL_ANGLE=90.00
		COLL_OFFSET_INPLANE=0.00
		COLL_OFFSET_CROSSPLANE=0.00
		SCAN_DEVICE=STARCHECK
		ELECTROMETER=2D_ARRAY_INTERFACE
		DETECTOR=STARCHECK
		SCAN_CURVETYPE=INPLANE_PROFILE
		SCAN_DEPTH=0.00
		SCAN_OFFAXIS_CROSSPLANE=130.00
		SCAN_ANGLE=0.00
		SCAN_DIAGONAL=NOT_DIAGONAL
		MEAS_PRESET=TIME_PRESET
		MEAS_TIME=10.000
		MEAS_UNIT=GY
		PRESSURE=1013.25
		TEMPERATURE=20.00
		NORM_TEMPERATURE=20.00
		CORRECTION_FACTOR=1.0000
		CORRECTIONS=AIR_DENSITY_CORR;
		BEGIN_DATA
			-130.00		2.4760E-03
			-125.00		2.6695E-03
			-120.00		2.5245E-03
			-115.00		2.6693E-03
			-110.00		3.5061E-03
			-105.00		2.9725E-03
			-100.00		3.4444E-03
			-95.00		3.5513E-03
			-90.00		3.2182E-03
			-85.00		4.0466E-03
			-80.00		3.4173E-03
			-75.00		3.9898E-03
			-70.00		4.1563E-03
			-65.00		4.3052E-03
			-60.00		4.7301E-03
			-55.00		4.9569E-03
			-50.00		4.3875E-03
			-45.00		4.9747E-03
			-40.00		5.9381E-03
			-35.00		5.5672E-03
			-30.00		5.7418E-03
			-25.00		5.1999E-03
			-20.00		5.5230E-03
			-15.00		5.4786E-03
			-10.00		5.1092E-03
			-5.00		5.9878E-03
			0.00		6.6872E-03
			5.00		5.9322E-03
			10.00		6.1072E-03
			15.00		5.5714E-03
			20.00		5.7641E-03
			25.00		5.6318E-03
			30.00		5.8211E-03
			35.00		5.5366E-03
			40.00		5.3783E-03
			45.00		5.1996E-03
			50.00		4.4830E-03
			55.00		5.1423E-03
			60.00		4.6976E-03
			65.00		4.0741E-03
			70.00		4.1230E-03
			75.00		4.4253E-03
			80.00		4.1186E-03
			85.00		3.9519E-03
			90.00		3.6021E-03
			95.00		3.3296E-03
			100.00		4.2254E-03
			105.00		2.6202E-03
			110.00		2.6901E-03
			115.00		2.5561E-03
			120.00		2.7020E-03
			125.00		2.3833E-03
			130.00		2.5827E-03
		END_DATA
	END_SCAN  14
	BEGIN_SCAN  15
		TASK_NAME=MODE_INTERVAL
		PROGRAM=BeamAdjust 1.2
		MEAS_DATE=07-Oct-2010 13:53:27
		LINAC=A4
		MODALITY=X
		INPLANE_AXIS_DIR=TARGET_GUN
		CROSSPLANE_AXIS_DIR=LEFT_RIGHT
		DEPTH_AXIS_DIR=UP_DOWN
		ENERGY=6.00
		SSD=950.00
		WEDGE=None
		FIELD_INPLANE=100.00
		FIELD_CROSSPLANE=100.00
		FIELD_TYPE=RECTANGULAR
		GANTRY=0.00
		GANTRY_UPRIGHT_POSITION=0
		GANTRY_ROTATION=CW
		COLL_ANGLE=90.00
		COLL_OFFSET_INPLANE=0.00
		COLL_OFFSET_CROSSPLANE=0.00
		SCAN_DEVICE=STARCHECK
		ELECTROMETER=2D_ARRAY_INTERFACE
		DETECTOR=STARCHECK
		SCAN_CURVETYPE=INPLANE_PROFILE
		SCAN_DEPTH=0.00
		SCAN_OFFAXIS_CROSSPLANE=0.00
		SCAN_ANGLE=0.00
		SCAN_DIAGONAL=FIRST_DIAGONAL
		MEAS_PRESET=TIME_PRESET
		MEAS_TIME=10.000
		MEAS_UNIT=GY
		PRESSURE=1013.25
		TEMPERATURE=20.00
		NORM_TEMPERATURE=20.00
		CORRECTION_FACTOR=1.0000
		CORRECTIONS=AIR_DENSITY_CORR;
		BEGIN_DATA
			-172.40		2.6948E-03
			-169.40		2.6912E-03
			-166.40		4.1734E-03
			-163.40		3.9421E-03
			-160.40		3.8535E-03
			-157.40		4.0230E-03
			-154.40		4.1737E-03
			-151.40		3.8813E-03
			-148.40		5.3251E-03
			-145.40		5.2254E-03
			-142.40		5.6092E-03
			-139.40		5.9858E-03
			-136.40		5.8993E-03
			-133.40		6.7937E-03
			-130.40		7.5185E-03
			-127.40		7.5737E-03
			-124.40		7.9224E-03
			-121.40		9.0989E-03
			-118.40		9.7633E-03
			-115.40		10.713E-03
			-112.40		11.425E-03
			-109.40		12.538E-03
			-106.40		14.061E-03
			-103.40		14.087E-03
			-100.40		15.104E-03
			-97.40		17.764E-03
			-94.40		19.651E-03
			-91.40		21.585E-03
			-88.40		24.605E-03
			-85.40		27.479E-03
			-82.40		31.183E-03
			-79.40		36.872E-03
			-76.40		47.461E-03
			-73.40		75.821E-03
			-70.40		181.24E-03
			-67.40		391.38E-03
			-64.40		543.92E-03
			-61.40		598.92E-03
			-58.40		621.81E-03
			-55.40		634.52E-03
			-52.40		642.24E-03
			-49.40		647.53E-03
			-46.40		650.43E-03
			-43.40		653.08E-03
			-40.40		655.96E-03
			-37.40		660.85E-03
			-34.40		660.75E-03
			-31.40		662.37E-03
			-28.40		661.17E-03
			-25.40		664.22E-03
			-22.40		663.84E-03
			-19.40		664.68E-03
			-16.40		668.72E-03
			-13.40		671.44E-03
			0.00		667.76E-03
			13.40		672.30E-03
			16.40		667.71E-03
			19.40		667.03E-03
			22.40		665.99E-03
			25.40		665.23E-03
			28.40		664.13E-03
			31.40		661.88E-03
			34.40		658.71E-03
			37.40		660.95E-03
			40.40		658.77E-03
			43.40		655.40E-03
			46.40		653.46E-03
			49.40		648.30E-03
			52.40		643.02E-03
			55.40		631.62E-03
			58.40		617.97E-03
			61.40		588.54E-03
			64.40		505.95E-03
			67.40		344.91E-03
			70.40		158.72E-03
			73.40		71.990E-03
			76.40		47.139E-03
			79.40		36.502E-03
			82.40		31.634E-03
			85.40		27.073E-03
			88.40		24.551E-03
			91.40		21.402E-03
			94.40		19.577E-03
			97.40		17.777E-03
			100.40		16.082E-03
			103.40		15.192E-03
			106.40		13.747E-03
			109.40		12.715E-03
			112.40		10.710E-03
			115.40		10.315E-03
			118.40		9.2596E-03
			121.40		8.9310E-03
			124.40		8.7727E-03
			127.40		7.9073E-03
			130.40		7.5130E-03
			133.40		6.3929E-03
			136.40		5.5022E-03
			139.40		5.4546E-03
			142.40		5.4479E-03
			145.40		4.9719E-03
			148.40		5.0868E-03
			151.40		4.1671E-03
			154.40		4.3849E-03
			157.40		4.0805E-03
			160.40		3.1045E-03
			163.40		3.0576E-03
			166.40		3.9416E-03
			169.40		2.8960E-03
			172.40		2.9832E-03
		END_DATA
	END_SCAN  15
	BEGIN_SCAN  16
		TASK_NAME=MODE_INTERVAL
		PROGRAM=BeamAdjust 1.2
		MEAS_DATE=07-Oct-2010 13:53:27
		LINAC=A4
		MODALITY=X
		INPLANE_AXIS_DIR=GUN_TARGET
		CROSSPLANE_AXIS_DIR=LEFT_RIGHT
		DEPTH_AXIS_DIR=UP_DOWN
		ENERGY=6.00
		SSD=950.00
		WEDGE=None
		FIELD_INPLANE=100.00
		FIELD_CROSSPLANE=100.00
		FIELD_TYPE=RECTANGULAR
		GANTRY=0.00
		GANTRY_UPRIGHT_POSITION=0
		GANTRY_ROTATION=CW
		COLL_ANGLE=90.00
		COLL_OFFSET_INPLANE=0.00
		COLL_OFFSET_CROSSPLANE=0.00
		SCAN_DEVICE=STARCHECK
		ELECTROMETER=2D_ARRAY_INTERFACE
		DETECTOR=STARCHECK
		SCAN_CURVETYPE=INPLANE_PROFILE
		SCAN_DEPTH=0.00
		SCAN_OFFAXIS_CROSSPLANE=0.00
		SCAN_ANGLE=0.00
		SCAN_DIAGONAL=SECOND_DIAGONAL
		MEAS_PRESET=TIME_PRESET
		MEAS_TIME=10.000
		MEAS_UNIT=GY
		PRESSURE=1013.25
		TEMPERATURE=20.00
		NORM_TEMPERATURE=20.00
		CORRECTION_FACTOR=1.0000
		CORRECTIONS=AIR_DENSITY_CORR;
		BEGIN_DATA
			-172.40		3.0124E-03
			-169.40		3.3145E-03
			-166.40		3.1558E-03
			-163.40		3.0402E-03
			-160.40		3.6490E-03
			-157.40		4.6995E-03
			-154.40		4.3547E-03
			-151.40		4.6119E-03
			-148.40		5.1212E-03
			-145.40		5.2140E-03
			-142.40		5.3670E-03
			-139.40		5.3763E-03
			-136.40		5.8889E-03
			-133.40		6.6098E-03
			-130.40		6.7687E-03
			-127.40		7.9231E-03
			-124.40		8.7000E-03
			-121.40		9.0967E-03
			-118.40		9.7718E-03
			-115.40		11.206E-03
			-112.40		11.220E-03
			-109.40		12.573E-03
			-106.40		13.647E-03
			-103.40		14.878E-03
			-100.40		16.420E-03
			-97.40		17.947E-03
			-94.40		19.663E-03
			-91.40		22.103E-03
			-88.40		24.086E-03
			-85.40		27.196E-03
			-82.40		32.027E-03
			-79.40		38.795E-03
			-76.40		51.457E-03
			-73.40		88.519E-03
			-70.40		219.13E-03
			-67.40		434.92E-03
			-64.40		564.96E-03
			-61.40		610.37E-03
			-58.40		631.57E-03
			-55.40		640.97E-03
			-52.40		651.14E-03
			-49.40		655.10E-03
			-46.40		658.13E-03
			-43.40		661.06E-03
			-40.40		663.25E-03
			-37.40		666.43E-03
			-34.40		665.46E-03
			-31.40		666.61E-03
			-28.40		668.69E-03
			-25.40		667.07E-03
			-22.40		665.24E-03
			-19.40		669.73E-03
			-16.40		671.20E-03
			-13.40		673.53E-03
			0.00		667.76E-03
			13.40		671.27E-03
			16.40		668.09E-03
			19.40		665.26E-03
			22.40		662.36E-03
			25.40		662.01E-03
			28.40		661.07E-03
			31.40		659.42E-03
			34.40		655.99E-03
			37.40		655.48E-03
			40.40		653.90E-03
			43.40		651.77E-03
			46.40		649.55E-03
			49.40		645.39E-03
			52.40		636.20E-03
			55.40		626.62E-03
			58.40		613.42E-03
			61.40		578.86E-03
			64.40		486.33E-03
			67.40		287.63E-03
			70.40		117.99E-03
			73.40		60.043E-03
			76.40		42.309E-03
			79.40		33.935E-03
			82.40		30.015E-03
			85.40		26.236E-03
			88.40		23.631E-03
			91.40		21.368E-03
			94.40		19.078E-03
			97.40		17.717E-03
			100.40		14.981E-03
			103.40		14.100E-03
			106.40		13.065E-03
			109.40		12.083E-03
			112.40		11.086E-03
			115.40		10.641E-03
			118.40		8.9840E-03
			121.40		8.4873E-03
			124.40		7.8283E-03
			127.40		7.2847E-03
			130.40		7.3263E-03
			133.40		6.6611E-03
			136.40		6.0391E-03
			139.40		6.0090E-03
			142.40		5.6863E-03
			145.40		5.3278E-03
			148.40		5.1132E-03
			151.40		4.1135E-03
			154.40		4.3683E-03
			157.40		4.6735E-03
			160.40		3.8280E-03
			163.40		3.9320E-03
			166.40		3.6261E-03
			169.40		3.0452E-03
			172.40		2.6045E-03
		END_DATA
	END_SCAN  16
END_SCAN_DATA
