BEGIN_SCAN_DATA
	FORMAT=CC-Export V1.9                  
	FILE_CREATION_DATE=07-Oct-2010 13:52:53
	LAST_MODIFIED=07-Oct-2010 13:52:53
	BEGIN_SCAN  1
		TASK_NAME=MODE_INTERVAL
		PROGRAM=BeamAdjust 1.2
		MEAS_DATE=07-Oct-2010 13:52:53
		LINAC=A4
		MODALITY=X
		INPLANE_AXIS_DIR=TARGET_GUN
		CROSSPLANE_AXIS_DIR=LEFT_RIGHT
		DEPTH_AXIS_DIR=UP_DOWN
		ENERGY=6.00
		SSD=950.00
		WEDGE=None
		FIELD_INPLANE=100.00
		FIELD_CROSSPLANE=100.00
		FIELD_TYPE=RECTANGULAR
		GANTRY=0.00
		GANTRY_UPRIGHT_POSITION=0
		GANTRY_ROTATION=CW
		COLL_ANGLE=90.00
		COLL_OFFSET_INPLANE=0.00
		COLL_OFFSET_CROSSPLANE=0.00
		SCAN_DEVICE=STARCHECK
		ELECTROMETER=2D_ARRAY_INTERFACE
		DETECTOR=STARCHECK
		SCAN_CURVETYPE=CROSSPLANE_PROFILE
		SCAN_DEPTH=0.00
		SCAN_OFFAXIS_INPLANE=-130.00
		SCAN_ANGLE=0.00
		SCAN_DIAGONAL=NOT_DIAGONAL
		MEAS_PRESET=TIME_PRESET
		MEAS_TIME=10.000
		MEAS_UNIT=GY
		PRESSURE=1013.25
		TEMPERATURE=20.00
		NORM_TEMPERATURE=20.00
		CORRECTION_FACTOR=1.0000
		CORRECTIONS=AIR_DENSITY_CORR;
		BEGIN_DATA
			-130.00		3.1402E-03
			-80.00		4.1956E-03
			-40.00		7.1094E-03
			40.00		7.2360E-03
			80.00		4.1977E-03
			130.00		2.1319E-03
		END_DATA
	END_SCAN  1
	BEGIN_SCAN  2
		TASK_NAME=MODE_INTERVAL
		PROGRAM=BeamAdjust 1.2
		MEAS_DATE=07-Oct-2010 13:52:53
		LINAC=A4
		MODALITY=X
		INPLANE_AXIS_DIR=TARGET_GUN
		CROSSPLANE_AXIS_DIR=LEFT_RIGHT
		DEPTH_AXIS_DIR=UP_DOWN
		ENERGY=6.00
		SSD=950.00
		WEDGE=None
		FIELD_INPLANE=100.00
		FIELD_CROSSPLANE=100.00
		FIELD_TYPE=RECTANGULAR
		GANTRY=0.00
		GANTRY_UPRIGHT_POSITION=0
		GANTRY_ROTATION=CW
		COLL_ANGLE=90.00
		COLL_OFFSET_INPLANE=0.00
		COLL_OFFSET_CROSSPLANE=0.00
		SCAN_DEVICE=STARCHECK
		ELECTROMETER=2D_ARRAY_INTERFACE
		DETECTOR=STARCHECK
		SCAN_CURVETYPE=CROSSPLANE_PROFILE
		SCAN_DEPTH=0.00
		SCAN_OFFAXIS_INPLANE=-100.00
		SCAN_ANGLE=0.00
		SCAN_DIAGONAL=NOT_DIAGONAL
		MEAS_PRESET=TIME_PRESET
		MEAS_TIME=10.000
		MEAS_UNIT=GY
		PRESSURE=1013.25
		TEMPERATURE=20.00
		NORM_TEMPERATURE=20.00
		CORRECTION_FACTOR=1.0000
		CORRECTIONS=AIR_DENSITY_CORR;
		BEGIN_DATA
			-60.00		10.307E-03
			-30.00		14.313E-03
			30.00		15.186E-03
			60.00		10.293E-03
		END_DATA
	END_SCAN  2
	BEGIN_SCAN  3
		TASK_NAME=MODE_INTERVAL
		PROGRAM=BeamAdjust 1.2
		MEAS_DATE=07-Oct-2010 13:52:53
		LINAC=A4
		MODALITY=X
		INPLANE_AXIS_DIR=TARGET_GUN
		CROSSPLANE_AXIS_DIR=LEFT_RIGHT
		DEPTH_AXIS_DIR=UP_DOWN
		ENERGY=6.00
		SSD=950.00
		WEDGE=None
		FIELD_INPLANE=100.00
		FIELD_CROSSPLANE=100.00
		FIELD_TYPE=RECTANGULAR
		GANTRY=0.00
		GANTRY_UPRIGHT_POSITION=0
		GANTRY_ROTATION=CW
		COLL_ANGLE=90.00
		COLL_OFFSET_INPLANE=0.00
		COLL_OFFSET_CROSSPLANE=0.00
		SCAN_DEVICE=STARCHECK
		ELECTROMETER=2D_ARRAY_INTERFACE
		DETECTOR=STARCHECK
		SCAN_CURVETYPE=CROSSPLANE_PROFILE
		SCAN_DEPTH=0.00
		SCAN_OFFAXIS_INPLANE=-50.00
		SCAN_ANGLE=0.00
		SCAN_DIAGONAL=NOT_DIAGONAL
		MEAS_PRESET=TIME_PRESET
		MEAS_TIME=10.000
		MEAS_UNIT=GY
		PRESSURE=1013.25
		TEMPERATURE=20.00
		NORM_TEMPERATURE=20.00
		CORRECTION_FACTOR=1.0000
		CORRECTIONS=AIR_DENSITY_CORR;
		BEGIN_DATA
			-30.00		393.76E-03
			-15.00		356.30E-03
			15.00		382.19E-03
			30.00		395.09E-03
		END_DATA
	END_SCAN  3
	BEGIN_SCAN  4
		TASK_NAME=MODE_INTERVAL
		PROGRAM=BeamAdjust 1.2
		MEAS_DATE=07-Oct-2010 13:52:53
		LINAC=A4
		MODALITY=X
		INPLANE_AXIS_DIR=TARGET_GUN
		CROSSPLANE_AXIS_DIR=LEFT_RIGHT
		DEPTH_AXIS_DIR=UP_DOWN
		ENERGY=6.00
		SSD=950.00
		WEDGE=None
		FIELD_INPLANE=100.00
		FIELD_CROSSPLANE=100.00
		FIELD_TYPE=RECTANGULAR
		GANTRY=0.00
		GANTRY_UPRIGHT_POSITION=0
		GANTRY_ROTATION=CW
		COLL_ANGLE=90.00
		COLL_OFFSET_INPLANE=0.00
		COLL_OFFSET_CROSSPLANE=0.00
		SCAN_DEVICE=STARCHECK
		ELECTROMETER=2D_ARRAY_INTERFACE
		DETECTOR=STARCHECK
		SCAN_CURVETYPE=CROSSPLANE_PROFILE
		SCAN_DEPTH=0.00
		SCAN_OFFAXIS_INPLANE=0.00
		SCAN_ANGLE=0.00
		SCAN_DIAGONAL=NOT_DIAGONAL
		MEAS_PRESET=TIME_PRESET
		MEAS_TIME=10.000
		MEAS_UNIT=GY
		PRESSURE=1013.25
		TEMPERATURE=20.00
		NORM_TEMPERATURE=20.00
		CORRECTION_FACTOR=1.0000
		CORRECTIONS=AIR_DENSITY_CORR;
		BEGIN_DATA
			-126.00		6.5543E-03
			-123.00		7.6220E-03
			-120.00		7.9893E-03
			-117.00		8.4963E-03
			-114.00		8.9700E-03
			-111.00		9.8716E-03
			-108.00		10.544E-03
			-105.00		10.859E-03
			-102.00		11.633E-03
			-99.00		12.896E-03
			-96.00		13.766E-03
			-93.00		15.317E-03
			-90.00		16.204E-03
			-87.00		17.826E-03
			-84.00		19.701E-03
			-81.00		21.421E-03
			-78.00		23.478E-03
			-75.00		26.055E-03
			-72.00		28.979E-03
			-69.00		33.032E-03
			-66.00		37.398E-03
			-63.00		42.643E-03
			-60.00		50.366E-03
			-57.00		63.941E-03
			-54.00		90.776E-03
			-51.00		181.72E-03
			-48.00		470.71E-03
			-45.00		599.58E-03
			-42.00		629.87E-03
			-39.00		645.18E-03
			-36.00		652.81E-03
			-33.00		653.89E-03
			-30.00		655.92E-03
			-27.00		659.41E-03
			-24.00		661.15E-03
			-21.00		661.41E-03
			-18.00		666.94E-03
			-15.00		667.39E-03
			-12.00		667.26E-03
			-9.00		669.69E-03
			-6.00		669.36E-03
			0.00		667.49E-03
			6.00		670.96E-03
			9.00		670.42E-03
			12.00		668.19E-03
			15.00		667.86E-03
			18.00		667.18E-03
			21.00		664.99E-03
			24.00		662.04E-03
			27.00		665.50E-03
			30.00		664.38E-03
			33.00		662.54E-03
			36.00		659.46E-03
			39.00		654.30E-03
			42.00		645.82E-03
			45.00		628.92E-03
			48.00		580.50E-03
			51.00		360.10E-03
			54.00		130.77E-03
			57.00		78.210E-03
			60.00		58.598E-03
			63.00		47.979E-03
			66.00		40.640E-03
			69.00		34.802E-03
			72.00		31.422E-03
			75.00		27.909E-03
			78.00		24.891E-03
			81.00		22.642E-03
			84.00		20.308E-03
			87.00		18.465E-03
			90.00		17.634E-03
			93.00		15.799E-03
			96.00		13.906E-03
			99.00		13.082E-03
			102.00		12.270E-03
			105.00		11.511E-03
			108.00		11.294E-03
			111.00		9.4388E-03
			114.00		9.0317E-03
			117.00		8.4545E-03
			120.00		7.5879E-03
			123.00		7.5015E-03
			126.00		7.3372E-03
		END_DATA
	END_SCAN  4
	BEGIN_SCAN  5
		TASK_NAME=MODE_INTERVAL
		PROGRAM=BeamAdjust 1.2
		MEAS_DATE=07-Oct-2010 13:52:53
		LINAC=A4
		MODALITY=X
		INPLANE_AXIS_DIR=TARGET_GUN
		CROSSPLANE_AXIS_DIR=LEFT_RIGHT
		DEPTH_AXIS_DIR=UP_DOWN
		ENERGY=6.00
		SSD=950.00
		WEDGE=None
		FIELD_INPLANE=100.00
		FIELD_CROSSPLANE=100.00
		FIELD_TYPE=RECTANGULAR
		GANTRY=0.00
		GANTRY_UPRIGHT_POSITION=0
		GANTRY_ROTATION=CW
		COLL_ANGLE=90.00
		COLL_OFFSET_INPLANE=0.00
		COLL_OFFSET_CROSSPLANE=0.00
		SCAN_DEVICE=STARCHECK
		ELECTROMETER=2D_ARRAY_INTERFACE
		DETECTOR=STARCHECK
		SCAN_CURVETYPE=CROSSPLANE_PROFILE
		SCAN_DEPTH=0.00
		SCAN_OFFAXIS_INPLANE=50.00
		SCAN_ANGLE=0.00
		SCAN_DIAGONAL=NOT_DIAGONAL
		MEAS_PRESET=TIME_PRESET
		MEAS_TIME=10.000
		MEAS_UNIT=GY
		PRESSURE=1013.25
		TEMPERATURE=20.00
		NORM_TEMPERATURE=20.00
		CORRECTION_FACTOR=1.0000
		CORRECTIONS=AIR_DENSITY_CORR;
		BEGIN_DATA
			-30.00		269.99E-03
			-15.00		284.64E-03
			15.00		254.99E-03
			30.00		261.65E-03
		END_DATA
	END_SCAN  5
	BEGIN_SCAN  6
		TASK_NAME=MODE_INTERVAL
		PROGRAM=BeamAdjust 1.2
		MEAS_DATE=07-Oct-2010 13:52:53
		LINAC=A4
		MODALITY=X
		INPLANE_AXIS_DIR=TARGET_GUN
		CROSSPLANE_AXIS_DIR=LEFT_RIGHT
		DEPTH_AXIS_DIR=UP_DOWN
		ENERGY=6.00
		SSD=950.00
		WEDGE=None
		FIELD_INPLANE=100.00
		FIELD_CROSSPLANE=100.00
		FIELD_TYPE=RECTANGULAR
		GANTRY=0.00
		GANTRY_UPRIGHT_POSITION=0
		GANTRY_ROTATION=CW
		COLL_ANGLE=90.00
		COLL_OFFSET_INPLANE=0.00
		COLL_OFFSET_CROSSPLANE=0.00
		SCAN_DEVICE=STARCHECK
		ELECTROMETER=2D_ARRAY_INTERFACE
		DETECTOR=STARCHECK
		SCAN_CURVETYPE=CROSSPLANE_PROFILE
		SCAN_DEPTH=0.00
		SCAN_OFFAXIS_INPLANE=100.00
		SCAN_ANGLE=0.00
		SCAN_DIAGONAL=NOT_DIAGONAL
		MEAS_PRESET=TIME_PRESET
		MEAS_TIME=10.000
		MEAS_UNIT=GY
		PRESSURE=1013.25
		TEMPERATURE=20.00
		NORM_TEMPERATURE=20.00
		CORRECTION_FACTOR=1.0000
		CORRECTIONS=AIR_DENSITY_CORR;
		BEGIN_DATA
			-60.00		10.167E-03
			-30.00		15.011E-03
			30.00		15.118E-03
			60.00		9.6306E-03
		END_DATA
	END_SCAN  6
	BEGIN_SCAN  7
		TASK_NAME=MODE_INTERVAL
		PROGRAM=BeamAdjust 1.2
		MEAS_DATE=07-Oct-2010 13:52:53
		LINAC=A4
		MODALITY=X
		INPLANE_AXIS_DIR=TARGET_GUN
		CROSSPLANE_AXIS_DIR=LEFT_RIGHT
		DEPTH_AXIS_DIR=UP_DOWN
		ENERGY=6.00
		SSD=950.00
		WEDGE=None
		FIELD_INPLANE=100.00
		FIELD_CROSSPLANE=100.00
		FIELD_TYPE=RECTANGULAR
		GANTRY=0.00
		GANTRY_UPRIGHT_POSITION=0
		GANTRY_ROTATION=CW
		COLL_ANGLE=90.00
		COLL_OFFSET_INPLANE=0.00
		COLL_OFFSET_CROSSPLANE=0.00
		SCAN_DEVICE=STARCHECK
		ELECTROMETER=2D_ARRAY_INTERFACE
		DETECTOR=STARCHECK
		SCAN_CURVETYPE=CROSSPLANE_PROFILE
		SCAN_DEPTH=0.00
		SCAN_OFFAXIS_INPLANE=130.00
		SCAN_ANGLE=0.00
		SCAN_DIAGONAL=NOT_DIAGONAL
		MEAS_PRESET=TIME_PRESET
		MEAS_TIME=10.000
		MEAS_UNIT=GY
		PRESSURE=1013.25
		TEMPERATURE=20.00
		NORM_TEMPERATURE=20.00
		CORRECTION_FACTOR=1.0000
		CORRECTIONS=AIR_DENSITY_CORR;
		BEGIN_DATA
			-130.00		2.0625E-03
			-80.00		4.2177E-03
			-40.00		7.5516E-03
			40.00		7.2383E-03
			80.00		4.2009E-03
			130.00		2.2264E-03
		END_DATA
	END_SCAN  7
	BEGIN_SCAN  8
		TASK_NAME=MODE_INTERVAL
		PROGRAM=BeamAdjust 1.2
		MEAS_DATE=07-Oct-2010 13:52:53
		LINAC=A4
		MODALITY=X
		INPLANE_AXIS_DIR=TARGET_GUN
		CROSSPLANE_AXIS_DIR=LEFT_RIGHT
		DEPTH_AXIS_DIR=UP_DOWN
		ENERGY=6.00
		SSD=950.00
		WEDGE=None
		FIELD_INPLANE=100.00
		FIELD_CROSSPLANE=100.00
		FIELD_TYPE=RECTANGULAR
		GANTRY=0.00
		GANTRY_UPRIGHT_POSITION=0
		GANTRY_ROTATION=CW
		COLL_ANGLE=90.00
		COLL_OFFSET_INPLANE=0.00
		COLL_OFFSET_CROSSPLANE=0.00
		SCAN_DEVICE=STARCHECK
		ELECTROMETER=2D_ARRAY_INTERFACE
		DETECTOR=STARCHECK
		SCAN_CURVETYPE=INPLANE_PROFILE
		SCAN_DEPTH=0.00
		SCAN_OFFAXIS_CROSSPLANE=-130.00
		SCAN_ANGLE=0.00
		SCAN_DIAGONAL=NOT_DIAGONAL
		MEAS_PRESET=TIME_PRESET
		MEAS_TIME=10.000
		MEAS_UNIT=GY
		PRESSURE=1013.25
		TEMPERATURE=20.00
		NORM_TEMPERATURE=20.00
		CORRECTION_FACTOR=1.0000
		CORRECTIONS=AIR_DENSITY_CORR;
		BEGIN_DATA
			-130.00		3.1402E-03
			-125.00		2.5101E-03
			-120.00		3.0534E-03
			-115.00		3.3539E-03
			-110.00		3.3399E-03
			-105.00		3.6306E-03
			-100.00		4.0287E-03
			-95.00		4.4228E-03
			-90.00		4.5104E-03
			-85.00		4.1592E-03
			-80.00		4.3914E-03
			-75.00		4.8554E-03
			-70.00		4.8170E-03
			-65.00		4.8896E-03
			-60.00		5.5298E-03
			-55.00		5.9185E-03
			-50.00		4.4464E-03
			-45.00		4.9135E-03
			-40.00		4.7956E-03
			-35.00		5.5209E-03
			-30.00		5.5277E-03
			-25.00		5.1787E-03
			-20.00		5.3788E-03
			-15.00		4.9481E-03
			-10.00		5.4352E-03
			-5.00		6.3890E-03
			0.00		6.2409E-03
			5.00		6.6168E-03
			10.00		6.2567E-03
			15.00		5.6502E-03
			20.00		6.2027E-03
			25.00		5.2533E-03
			30.00		5.9902E-03
			35.00		5.5180E-03
			40.00		5.1872E-03
			45.00		5.1347E-03
			50.00		4.9060E-03
			55.00		4.7574E-03
			60.00		4.6102E-03
			65.00		4.3761E-03
			70.00		4.1454E-03
			75.00		4.0089E-03
			80.00		4.3411E-03
			85.00		3.7598E-03
			90.00		3.5694E-03
			95.00		3.7756E-03
			100.00		2.9100E-03
			105.00		2.8628E-03
			110.00		2.7603E-03
			115.00		2.7154E-03
			120.00		2.9259E-03
			125.00		2.4371E-03
			130.00		2.0625E-03
		END_DATA
	END_SCAN  8
	BEGIN_SCAN  9
		TASK_NAME=MODE_INTERVAL
		PROGRAM=BeamAdjust 1.2
		MEAS_DATE=07-Oct-2010 13:52:53
		LINAC=A4
		MODALITY=X
		INPLANE_AXIS_DIR=TARGET_GUN
		CROSSPLANE_AXIS_DIR=LEFT_RIGHT
		DEPTH_AXIS_DIR=UP_DOWN
		ENERGY=6.00
		SSD=950.00
		WEDGE=None
		FIELD_INPLANE=100.00
		FIELD_CROSSPLANE=100.00
		FIELD_TYPE=RECTANGULAR
		GANTRY=0.00
		GANTRY_UPRIGHT_POSITION=0
		GANTRY_ROTATION=CW
		COLL_ANGLE=90.00
		COLL_OFFSET_INPLANE=0.00
		COLL_OFFSET_CROSSPLANE=0.00
		SCAN_DEVICE=STARCHECK
		ELECTROMETER=2D_ARRAY_INTERFACE
		DETECTOR=STARCHECK
		SCAN_CURVETYPE=INPLANE_PROFILE
		SCAN_DEPTH=0.00
		SCAN_OFFAXIS_CROSSPLANE=-100.00
		SCAN_ANGLE=0.00
		SCAN_DIAGONAL=NOT_DIAGONAL
		MEAS_PRESET=TIME_PRESET
		MEAS_TIME=10.000
		MEAS_UNIT=GY
		PRESSURE=1013.25
		TEMPERATURE=20.00
		NORM_TEMPERATURE=20.00
		CORRECTION_FACTOR=1.0000
		CORRECTIONS=AIR_DENSITY_CORR;
		BEGIN_DATA
			-60.00		8.3313E-03
			-30.00		10.569E-03
			30.00		10.122E-03
			60.00		8.4467E-03
		END_DATA
	END_SCAN  9
	BEGIN_SCAN  10
		TASK_NAME=MODE_INTERVAL
		PROGRAM=BeamAdjust 1.2
		MEAS_DATE=07-Oct-2010 13:52:53
		LINAC=A4
		MODALITY=X
		INPLANE_AXIS_DIR=TARGET_GUN
		CROSSPLANE_AXIS_DIR=LEFT_RIGHT
		DEPTH_AXIS_DIR=UP_DOWN
		ENERGY=6.00
		SSD=950.00
		WEDGE=None
		FIELD_INPLANE=100.00
		FIELD_CROSSPLANE=100.00
		FIELD_TYPE=RECTANGULAR
		GANTRY=0.00
		GANTRY_UPRIGHT_POSITION=0
		GANTRY_ROTATION=CW
		COLL_ANGLE=90.00
		COLL_OFFSET_INPLANE=0.00
		COLL_OFFSET_CROSSPLANE=0.00
		SCAN_DEVICE=STARCHECK
		ELECTROMETER=2D_ARRAY_INTERFACE
		DETECTOR=STARCHECK
		SCAN_CURVETYPE=INPLANE_PROFILE
		SCAN_DEPTH=0.00
		SCAN_OFFAXIS_CROSSPLANE=-50.00
		SCAN_ANGLE=0.00
		SCAN_DIAGONAL=NOT_DIAGONAL
		MEAS_PRESET=TIME_PRESET
		MEAS_TIME=10.000
		MEAS_UNIT=GY
		PRESSURE=1013.25
		TEMPERATURE=20.00
		NORM_TEMPERATURE=20.00
		CORRECTION_FACTOR=1.0000
		CORRECTIONS=AIR_DENSITY_CORR;
		BEGIN_DATA
			-30.00		290.56E-03
			-15.00		287.62E-03
			15.00		277.51E-03
			30.00		266.61E-03
		END_DATA
	END_SCAN  10
	BEGIN_SCAN  11
		TASK_NAME=MODE_INTERVAL
		PROGRAM=BeamAdjust 1.2
		MEAS_DATE=07-Oct-2010 13:52:53
		LINAC=A4
		MODALITY=X
		INPLANE_AXIS_DIR=TARGET_GUN
		CROSSPLANE_AXIS_DIR=LEFT_RIGHT
		DEPTH_AXIS_DIR=UP_DOWN
		ENERGY=6.00
		SSD=950.00
		WEDGE=None
		FIELD_INPLANE=100.00
		FIELD_CROSSPLANE=100.00
		FIELD_TYPE=RECTANGULAR
		GANTRY=0.00
		GANTRY_UPRIGHT_POSITION=0
		GANTRY_ROTATION=CW
		COLL_ANGLE=90.00
		COLL_OFFSET_INPLANE=0.00
		COLL_OFFSET_CROSSPLANE=0.00
		SCAN_DEVICE=STARCHECK
		ELECTROMETER=2D_ARRAY_INTERFACE
		DETECTOR=STARCHECK
		SCAN_CURVETYPE=INPLANE_PROFILE
		SCAN_DEPTH=0.00
		SCAN_OFFAXIS_CROSSPLANE=0.00
		SCAN_ANGLE=0.00
		SCAN_DIAGONAL=NOT_DIAGONAL
		MEAS_PRESET=TIME_PRESET
		MEAS_TIME=10.000
		MEAS_UNIT=GY
		PRESSURE=1013.25
		TEMPERATURE=20.00
		NORM_TEMPERATURE=20.00
		CORRECTION_FACTOR=1.0000
		CORRECTIONS=AIR_DENSITY_CORR;
		BEGIN_DATA
			-126.00		9.3362E-03
			-123.00		9.1411E-03
			-120.00		10.476E-03
			-117.00		11.446E-03
			-114.00		12.069E-03
			-111.00		12.781E-03
			-108.00		14.179E-03
			-105.00		14.772E-03
			-102.00		16.138E-03
			-99.00		16.767E-03
			-96.00		18.352E-03
			-93.00		20.512E-03
			-90.00		22.007E-03
			-87.00		23.495E-03
			-84.00		25.779E-03
			-81.00		28.165E-03
			-78.00		30.703E-03
			-75.00		33.510E-03
			-72.00		36.747E-03
			-69.00		40.938E-03
			-66.00		46.324E-03
			-63.00		52.928E-03
			-60.00		63.064E-03
			-57.00		82.923E-03
			-54.00		134.76E-03
			-51.00		309.29E-03
			-48.00		558.62E-03
			-45.00		623.63E-03
			-42.00		642.85E-03
			-39.00		652.08E-03
			-36.00		657.47E-03
			-33.00		661.08E-03
			-30.00		664.90E-03
			-27.00		665.64E-03
			-24.00		665.34E-03
			-21.00		663.96E-03
			-18.00		670.84E-03
			-15.00		669.59E-03
			-12.00		670.61E-03
			-9.00		670.80E-03
			-6.00		667.76E-03
			0.00		667.49E-03
			6.00		672.59E-03
			9.00		671.46E-03
			12.00		670.77E-03
			15.00		668.68E-03
			18.00		664.34E-03
			21.00		664.11E-03
			24.00		660.92E-03
			27.00		662.30E-03
			30.00		658.10E-03
			33.00		656.19E-03
			36.00		653.63E-03
			39.00		642.17E-03
			42.00		630.55E-03
			45.00		596.52E-03
			48.00		431.34E-03
			51.00		187.43E-03
			54.00		98.095E-03
			57.00		69.966E-03
			60.00		56.812E-03
			63.00		48.854E-03
			66.00		44.120E-03
			69.00		38.656E-03
			72.00		35.314E-03
			75.00		31.662E-03
			78.00		28.444E-03
			81.00		26.284E-03
			84.00		24.340E-03
			87.00		22.875E-03
			90.00		21.012E-03
			93.00		19.493E-03
			96.00		18.018E-03
			99.00		16.507E-03
			102.00		15.190E-03
			105.00		13.910E-03
			108.00		14.256E-03
			111.00		12.377E-03
			114.00		11.977E-03
			117.00		11.173E-03
			120.00		10.174E-03
			123.00		9.8996E-03
			126.00		8.5763E-03
		END_DATA
	END_SCAN  11
	BEGIN_SCAN  12
		TASK_NAME=MODE_INTERVAL
		PROGRAM=BeamAdjust 1.2
		MEAS_DATE=07-Oct-2010 13:52:53
		LINAC=A4
		MODALITY=X
		INPLANE_AXIS_DIR=TARGET_GUN
		CROSSPLANE_AXIS_DIR=LEFT_RIGHT
		DEPTH_AXIS_DIR=UP_DOWN
		ENERGY=6.00
		SSD=950.00
		WEDGE=None
		FIELD_INPLANE=100.00
		FIELD_CROSSPLANE=100.00
		FIELD_TYPE=RECTANGULAR
		GANTRY=0.00
		GANTRY_UPRIGHT_POSITION=0
		GANTRY_ROTATION=CW
		COLL_ANGLE=90.00
		COLL_OFFSET_INPLANE=0.00
		COLL_OFFSET_CROSSPLANE=0.00
		SCAN_DEVICE=STARCHECK
		ELECTROMETER=2D_ARRAY_INTERFACE
		DETECTOR=STARCHECK
		SCAN_CURVETYPE=INPLANE_PROFILE
		SCAN_DEPTH=0.00
		SCAN_OFFAXIS_CROSSPLANE=50.00
		SCAN_ANGLE=0.00
		SCAN_DIAGONAL=NOT_DIAGONAL
		MEAS_PRESET=TIME_PRESET
		MEAS_TIME=10.000
		MEAS_UNIT=GY
		PRESSURE=1013.25
		TEMPERATURE=20.00
		NORM_TEMPERATURE=20.00
		CORRECTION_FACTOR=1.0000
		CORRECTIONS=AIR_DENSITY_CORR;
		BEGIN_DATA
			-30.00		434.43E-03
			-15.00		443.03E-03
			15.00		449.85E-03
			30.00		451.39E-03
		END_DATA
	END_SCAN  12
	BEGIN_SCAN  13
		TASK_NAME=MODE_INTERVAL
		PROGRAM=BeamAdjust 1.2
		MEAS_DATE=07-Oct-2010 13:52:53
		LINAC=A4
		MODALITY=X
		INPLANE_AXIS_DIR=TARGET_GUN
		CROSSPLANE_AXIS_DIR=LEFT_RIGHT
		DEPTH_AXIS_DIR=UP_DOWN
		ENERGY=6.00
		SSD=950.00
		WEDGE=None
		FIELD_INPLANE=100.00
		FIELD_CROSSPLANE=100.00
		FIELD_TYPE=RECTANGULAR
		GANTRY=0.00
		GANTRY_UPRIGHT_POSITION=0
		GANTRY_ROTATION=CW
		COLL_ANGLE=90.00
		COLL_OFFSET_INPLANE=0.00
		COLL_OFFSET_CROSSPLANE=0.00
		SCAN_DEVICE=STARCHECK
		ELECTROMETER=2D_ARRAY_INTERFACE
		DETECTOR=STARCHECK
		SCAN_CURVETYPE=INPLANE_PROFILE
		SCAN_DEPTH=0.00
		SCAN_OFFAXIS_CROSSPLANE=100.00
		SCAN_ANGLE=0.00
		SCAN_DIAGONAL=NOT_DIAGONAL
		MEAS_PRESET=TIME_PRESET
		MEAS_TIME=10.000
		MEAS_UNIT=GY
		PRESSURE=1013.25
		TEMPERATURE=20.00
		NORM_TEMPERATURE=20.00
		CORRECTION_FACTOR=1.0000
		CORRECTIONS=AIR_DENSITY_CORR;
		BEGIN_DATA
			-60.00		8.5896E-03
			-30.00		11.484E-03
			30.00		10.719E-03
			60.00		7.9564E-03
		END_DATA
	END_SCAN  13
	BEGIN_SCAN  14
		TASK_NAME=MODE_INTERVAL
		PROGRAM=BeamAdjust 1.2
		MEAS_DATE=07-Oct-2010 13:52:53
		LINAC=A4
		MODALITY=X
		INPLANE_AXIS_DIR=TARGET_GUN
		CROSSPLANE_AXIS_DIR=LEFT_RIGHT
		DEPTH_AXIS_DIR=UP_DOWN
		ENERGY=6.00
		SSD=950.00
		WEDGE=None
		FIELD_INPLANE=100.00
		FIELD_CROSSPLANE=100.00
		FIELD_TYPE=RECTANGULAR
		GANTRY=0.00
		GANTRY_UPRIGHT_POSITION=0
		GANTRY_ROTATION=CW
		COLL_ANGLE=90.00
		COLL_OFFSET_INPLANE=0.00
		COLL_OFFSET_CROSSPLANE=0.00
		SCAN_DEVICE=STARCHECK
		ELECTROMETER=2D_ARRAY_INTERFACE
		DETECTOR=STARCHECK
		SCAN_CURVETYPE=INPLANE_PROFILE
		SCAN_DEPTH=0.00
		SCAN_OFFAXIS_CROSSPLANE=130.00
		SCAN_ANGLE=0.00
		SCAN_DIAGONAL=NOT_DIAGONAL
		MEAS_PRESET=TIME_PRESET
		MEAS_TIME=10.000
		MEAS_UNIT=GY
		PRESSURE=1013.25
		TEMPERATURE=20.00
		NORM_TEMPERATURE=20.00
		CORRECTION_FACTOR=1.0000
		CORRECTIONS=AIR_DENSITY_CORR;
		BEGIN_DATA
			-130.00		2.1319E-03
			-125.00		3.0420E-03
			-120.00		2.5776E-03
			-115.00		3.6326E-03
			-110.00		3.1977E-03
			-105.00		3.1973E-03
			-100.00		3.5900E-03
			-95.00		3.1681E-03
			-90.00		3.2893E-03
			-85.00		4.2412E-03
			-80.00		3.7875E-03
			-75.00		4.1538E-03
			-70.00		4.3641E-03
			-65.00		4.3480E-03
			-60.00		5.0202E-03
			-55.00		4.7325E-03
			-50.00		4.2915E-03
			-45.00		5.5370E-03
			-40.00		5.3515E-03
			-35.00		5.5258E-03
			-30.00		5.7566E-03
			-25.00		5.1940E-03
			-20.00		5.7210E-03
			-15.00		5.5923E-03
			-10.00		5.0782E-03
			-5.00		6.1834E-03
			0.00		6.2330E-03
			5.00		5.8662E-03
			10.00		6.1868E-03
			15.00		5.5802E-03
			20.00		6.0409E-03
			25.00		5.7579E-03
			30.00		5.0445E-03
			35.00		5.3278E-03
			40.00		5.6210E-03
			45.00		5.1892E-03
			50.00		4.9947E-03
			55.00		4.9699E-03
			60.00		4.7315E-03
			65.00		4.2167E-03
			70.00		4.1893E-03
			75.00		4.2519E-03
			80.00		3.8787E-03
			85.00		3.8036E-03
			90.00		4.0043E-03
			95.00		3.6903E-03
			100.00		3.6566E-03
			105.00		2.5921E-03
			110.00		2.7152E-03
			115.00		3.0894E-03
			120.00		2.8569E-03
			125.00		2.4128E-03
			130.00		2.2264E-03
		END_DATA
	END_SCAN  14
	BEGIN_SCAN  15
		TASK_NAME=MODE_INTERVAL
		PROGRAM=BeamAdjust 1.2
		MEAS_DATE=07-Oct-2010 13:52:53
		LINAC=A4
		MODALITY=X
		INPLANE_AXIS_DIR=TARGET_GUN
		CROSSPLANE_AXIS_DIR=LEFT_RIGHT
		DEPTH_AXIS_DIR=UP_DOWN
		ENERGY=6.00
		SSD=950.00
		WEDGE=None
		FIELD_INPLANE=100.00
		FIELD_CROSSPLANE=100.00
		FIELD_TYPE=RECTANGULAR
		GANTRY=0.00
		GANTRY_UPRIGHT_POSITION=0
		GANTRY_ROTATION=CW
		COLL_ANGLE=90.00
		COLL_OFFSET_INPLANE=0.00
		COLL_OFFSET_CROSSPLANE=0.00
		SCAN_DEVICE=STARCHECK
		ELECTROMETER=2D_ARRAY_INTERFACE
		DETECTOR=STARCHECK
		SCAN_CURVETYPE=INPLANE_PROFILE
		SCAN_DEPTH=0.00
		SCAN_OFFAXIS_CROSSPLANE=0.00
		SCAN_ANGLE=0.00
		SCAN_DIAGONAL=FIRST_DIAGONAL
		MEAS_PRESET=TIME_PRESET
		MEAS_TIME=10.000
		MEAS_UNIT=GY
		PRESSURE=1013.25
		TEMPERATURE=20.00
		NORM_TEMPERATURE=20.00
		CORRECTION_FACTOR=1.0000
		CORRECTIONS=AIR_DENSITY_CORR;
		BEGIN_DATA
			-172.40		2.6436E-03
			-169.40		2.9547E-03
			-166.40		3.7453E-03
			-163.40		3.7106E-03
			-160.40		4.2071E-03
			-157.40		4.0245E-03
			-154.40		4.3060E-03
			-151.40		3.9986E-03
			-148.40		4.8707E-03
			-145.40		5.4801E-03
			-142.40		5.6226E-03
			-139.40		6.0603E-03
			-136.40		5.9127E-03
			-133.40		7.0224E-03
			-130.40		7.2242E-03
			-127.40		7.4491E-03
			-124.40		8.2961E-03
			-121.40		8.8398E-03
			-118.40		9.9804E-03
			-115.40		10.515E-03
			-112.40		11.740E-03
			-109.40		12.612E-03
			-106.40		13.324E-03
			-103.40		14.404E-03
			-100.40		15.135E-03
			-97.40		17.543E-03
			-94.40		19.655E-03
			-91.40		21.761E-03
			-88.40		24.367E-03
			-85.40		26.872E-03
			-82.40		30.966E-03
			-79.40		36.752E-03
			-76.40		46.379E-03
			-73.40		72.782E-03
			-70.40		169.85E-03
			-67.40		375.79E-03
			-64.40		536.02E-03
			-61.40		596.00E-03
			-58.40		620.33E-03
			-55.40		633.83E-03
			-52.40		641.70E-03
			-49.40		647.39E-03
			-46.40		649.84E-03
			-43.40		652.56E-03
			-40.40		655.69E-03
			-37.40		660.61E-03
			-34.40		660.43E-03
			-31.40		661.95E-03
			-28.40		661.43E-03
			-25.40		663.81E-03
			-22.40		664.03E-03
			-19.40		664.63E-03
			-16.40		668.15E-03
			-13.40		671.15E-03
			0.00		667.49E-03
			13.40		672.63E-03
			16.40		667.98E-03
			19.40		667.56E-03
			22.40		665.98E-03
			25.40		665.43E-03
			28.40		664.18E-03
			31.40		662.08E-03
			34.40		659.08E-03
			37.40		661.71E-03
			40.40		658.94E-03
			43.40		655.78E-03
			46.40		654.40E-03
			49.40		648.35E-03
			52.40		643.20E-03
			55.40		632.43E-03
			58.40		618.74E-03
			61.40		589.61E-03
			64.40		508.41E-03
			67.40		352.61E-03
			70.40		166.90E-03
			73.40		74.708E-03
			76.40		47.618E-03
			79.40		37.969E-03
			82.40		31.303E-03
			85.40		27.198E-03
			88.40		24.663E-03
			91.40		21.625E-03
			94.40		19.764E-03
			97.40		17.673E-03
			100.40		16.111E-03
			103.40		15.186E-03
			106.40		13.750E-03
			109.40		12.606E-03
			112.40		10.655E-03
			115.40		10.299E-03
			118.40		9.1547E-03
			121.40		9.5697E-03
			124.40		8.0723E-03
			127.40		7.7755E-03
			130.40		7.4138E-03
			133.40		6.7469E-03
			136.40		5.8027E-03
			139.40		5.3483E-03
			142.40		5.1937E-03
			145.40		5.1740E-03
			148.40		5.2629E-03
			151.40		4.6093E-03
			154.40		4.3461E-03
			157.40		3.9157E-03
			160.40		3.3033E-03
			163.40		3.4611E-03
			166.40		3.6590E-03
			169.40		3.0866E-03
			172.40		3.0996E-03
		END_DATA
	END_SCAN  15
	BEGIN_SCAN  16
		TASK_NAME=MODE_INTERVAL
		PROGRAM=BeamAdjust 1.2
		MEAS_DATE=07-Oct-2010 13:52:53
		LINAC=A4
		MODALITY=X
		INPLANE_AXIS_DIR=GUN_TARGET
		CROSSPLANE_AXIS_DIR=LEFT_RIGHT
		DEPTH_AXIS_DIR=UP_DOWN
		ENERGY=6.00
		SSD=950.00
		WEDGE=None
		FIELD_INPLANE=100.00
		FIELD_CROSSPLANE=100.00
		FIELD_TYPE=RECTANGULAR
		GANTRY=0.00
		GANTRY_UPRIGHT_POSITION=0
		GANTRY_ROTATION=CW
		COLL_ANGLE=90.00
		COLL_OFFSET_INPLANE=0.00
		COLL_OFFSET_CROSSPLANE=0.00
		SCAN_DEVICE=STARCHECK
		ELECTROMETER=2D_ARRAY_INTERFACE
		DETECTOR=STARCHECK
		SCAN_CURVETYPE=INPLANE_PROFILE
		SCAN_DEPTH=0.00
		SCAN_OFFAXIS_CROSSPLANE=0.00
		SCAN_ANGLE=0.00
		SCAN_DIAGONAL=SECOND_DIAGONAL
		MEAS_PRESET=TIME_PRESET
		MEAS_TIME=10.000
		MEAS_UNIT=GY
		PRESSURE=1013.25
		TEMPERATURE=20.00
		NORM_TEMPERATURE=20.00
		CORRECTION_FACTOR=1.0000
		CORRECTIONS=AIR_DENSITY_CORR;
		BEGIN_DATA
			-172.40		3.2949E-03
			-169.40		3.1529E-03
			-166.40		3.1841E-03
			-163.40		3.5288E-03
			-160.40		3.9166E-03
			-157.40		4.0430E-03
			-154.40		4.4511E-03
			-151.40		4.5986E-03
			-148.40		4.9798E-03
			-145.40		5.2155E-03
			-142.40		5.7794E-03
			-139.40		5.5217E-03
			-136.40		5.9986E-03
			-133.40		6.9265E-03
			-130.40		7.4161E-03
			-127.40		7.9896E-03
			-124.40		8.4236E-03
			-121.40		9.3496E-03
			-118.40		9.9140E-03
			-115.40		10.464E-03
			-112.40		11.381E-03
			-109.40		12.443E-03
			-106.40		13.928E-03
			-103.40		15.114E-03
			-100.40		16.741E-03
			-97.40		17.967E-03
			-94.40		19.639E-03
			-91.40		22.347E-03
			-88.40		24.535E-03
			-85.40		27.934E-03
			-82.40		32.269E-03
			-79.40		39.458E-03
			-76.40		52.974E-03
			-73.40		93.722E-03
			-70.40		236.07E-03
			-67.40		450.29E-03
			-64.40		569.94E-03
			-61.40		612.47E-03
			-58.40		632.82E-03
			-55.40		641.11E-03
			-52.40		651.41E-03
			-49.40		655.12E-03
			-46.40		658.12E-03
			-43.40		660.97E-03
			-40.40		662.94E-03
			-37.40		666.31E-03
			-34.40		665.52E-03
			-31.40		666.36E-03
			-28.40		669.07E-03
			-25.40		667.22E-03
			-22.40		665.65E-03
			-19.40		669.01E-03
			-16.40		670.75E-03
			-13.40		673.35E-03
			0.00		667.49E-03
			13.40		671.08E-03
			16.40		668.37E-03
			19.40		664.84E-03
			22.40		662.51E-03
			25.40		662.36E-03
			28.40		660.77E-03
			31.40		659.72E-03
			34.40		656.03E-03
			37.40		656.32E-03
			40.40		654.13E-03
			43.40		651.60E-03
			46.40		649.84E-03
			49.40		644.58E-03
			52.40		635.90E-03
			55.40		625.99E-03
			58.40		611.57E-03
			61.40		575.45E-03
			64.40		474.38E-03
			67.40		270.70E-03
			70.40		109.67E-03
			73.40		57.411E-03
			76.40		41.458E-03
			79.40		33.999E-03
			82.40		29.738E-03
			85.40		25.831E-03
			88.40		23.031E-03
			91.40		21.146E-03
			94.40		18.972E-03
			97.40		17.398E-03
			100.40		14.953E-03
			103.40		13.604E-03
			106.40		12.938E-03
			109.40		11.808E-03
			112.40		11.043E-03
			115.40		9.8767E-03
			118.40		9.2625E-03
			121.40		9.0191E-03
			124.40		7.7430E-03
			127.40		7.2996E-03
			130.40		7.1666E-03
			133.40		6.5730E-03
			136.40		5.8734E-03
			139.40		6.1062E-03
			142.40		5.6982E-03
			145.40		5.1792E-03
			148.40		4.7674E-03
			151.40		4.3324E-03
			154.40		4.0830E-03
			157.40		4.0967E-03
			160.40		3.6008E-03
			163.40		4.3570E-03
			166.40		3.7214E-03
			169.40		3.1009E-03
			172.40		2.6996E-03
		END_DATA
	END_SCAN  16
END_SCAN_DATA
