BEGIN_SCAN_DATA
	FORMAT=CC-Export V1.9                  
	FILE_CREATION_DATE=07-Oct-2010 13:52:02
	LAST_MODIFIED=07-Oct-2010 13:52:02
	BEGIN_SCAN  1
		TASK_NAME=MODE_INTERVAL
		PROGRAM=BeamAdjust 1.2
		MEAS_DATE=07-Oct-2010 13:52:02
		LINAC=A4
		MODALITY=X
		INPLANE_AXIS_DIR=TARGET_GUN
		CROSSPLANE_AXIS_DIR=LEFT_RIGHT
		DEPTH_AXIS_DIR=UP_DOWN
		ENERGY=6.00
		SSD=950.00
		WEDGE=None
		FIELD_INPLANE=100.00
		FIELD_CROSSPLANE=100.00
		FIELD_TYPE=RECTANGULAR
		GANTRY=0.00
		GANTRY_UPRIGHT_POSITION=0
		GANTRY_ROTATION=CW
		COLL_ANGLE=90.00
		COLL_OFFSET_INPLANE=0.00
		COLL_OFFSET_CROSSPLANE=0.00
		SCAN_DEVICE=STARCHECK
		ELECTROMETER=2D_ARRAY_INTERFACE
		DETECTOR=STARCHECK
		SCAN_CURVETYPE=CROSSPLANE_PROFILE
		SCAN_DEPTH=0.00
		SCAN_OFFAXIS_INPLANE=-130.00
		SCAN_ANGLE=0.00
		SCAN_DIAGONAL=NOT_DIAGONAL
		MEAS_PRESET=TIME_PRESET
		MEAS_TIME=10.000
		MEAS_UNIT=GY
		PRESSURE=1013.25
		TEMPERATURE=20.00
		NORM_TEMPERATURE=20.00
		CORRECTION_FACTOR=1.0000
		CORRECTIONS=AIR_DENSITY_CORR;
		BEGIN_DATA
			-130.00		2.6886E-03
			-80.00		4.0566E-03
			-40.00		7.3882E-03
			40.00		6.8720E-03
			80.00		4.3677E-03
			130.00		2.2950E-03
		END_DATA
	END_SCAN  1
	BEGIN_SCAN  2
		TASK_NAME=MODE_INTERVAL
		PROGRAM=BeamAdjust 1.2
		MEAS_DATE=07-Oct-2010 13:52:02
		LINAC=A4
		MODALITY=X
		INPLANE_AXIS_DIR=TARGET_GUN
		CROSSPLANE_AXIS_DIR=LEFT_RIGHT
		DEPTH_AXIS_DIR=UP_DOWN
		ENERGY=6.00
		SSD=950.00
		WEDGE=None
		FIELD_INPLANE=100.00
		FIELD_CROSSPLANE=100.00
		FIELD_TYPE=RECTANGULAR
		GANTRY=0.00
		GANTRY_UPRIGHT_POSITION=0
		GANTRY_ROTATION=CW
		COLL_ANGLE=90.00
		COLL_OFFSET_INPLANE=0.00
		COLL_OFFSET_CROSSPLANE=0.00
		SCAN_DEVICE=STARCHECK
		ELECTROMETER=2D_ARRAY_INTERFACE
		DETECTOR=STARCHECK
		SCAN_CURVETYPE=CROSSPLANE_PROFILE
		SCAN_DEPTH=0.00
		SCAN_OFFAXIS_INPLANE=-100.00
		SCAN_ANGLE=0.00
		SCAN_DIAGONAL=NOT_DIAGONAL
		MEAS_PRESET=TIME_PRESET
		MEAS_TIME=10.000
		MEAS_UNIT=GY
		PRESSURE=1013.25
		TEMPERATURE=20.00
		NORM_TEMPERATURE=20.00
		CORRECTION_FACTOR=1.0000
		CORRECTIONS=AIR_DENSITY_CORR;
		BEGIN_DATA
			-60.00		10.633E-03
			-30.00		14.028E-03
			30.00		15.315E-03
			60.00		10.501E-03
		END_DATA
	END_SCAN  2
	BEGIN_SCAN  3
		TASK_NAME=MODE_INTERVAL
		PROGRAM=BeamAdjust 1.2
		MEAS_DATE=07-Oct-2010 13:52:02
		LINAC=A4
		MODALITY=X
		INPLANE_AXIS_DIR=TARGET_GUN
		CROSSPLANE_AXIS_DIR=LEFT_RIGHT
		DEPTH_AXIS_DIR=UP_DOWN
		ENERGY=6.00
		SSD=950.00
		WEDGE=None
		FIELD_INPLANE=100.00
		FIELD_CROSSPLANE=100.00
		FIELD_TYPE=RECTANGULAR
		GANTRY=0.00
		GANTRY_UPRIGHT_POSITION=0
		GANTRY_ROTATION=CW
		COLL_ANGLE=90.00
		COLL_OFFSET_INPLANE=0.00
		COLL_OFFSET_CROSSPLANE=0.00
		SCAN_DEVICE=STARCHECK
		ELECTROMETER=2D_ARRAY_INTERFACE
		DETECTOR=STARCHECK
		SCAN_CURVETYPE=CROSSPLANE_PROFILE
		SCAN_DEPTH=0.00
		SCAN_OFFAXIS_INPLANE=-50.00
		SCAN_ANGLE=0.00
		SCAN_DIAGONAL=NOT_DIAGONAL
		MEAS_PRESET=TIME_PRESET
		MEAS_TIME=10.000
		MEAS_UNIT=GY
		PRESSURE=1013.25
		TEMPERATURE=20.00
		NORM_TEMPERATURE=20.00
		CORRECTION_FACTOR=1.0000
		CORRECTIONS=AIR_DENSITY_CORR;
		BEGIN_DATA
			-30.00		391.96E-03
			-15.00		355.73E-03
			15.00		381.31E-03
			30.00		393.39E-03
		END_DATA
	END_SCAN  3
	BEGIN_SCAN  4
		TASK_NAME=MODE_INTERVAL
		PROGRAM=BeamAdjust 1.2
		MEAS_DATE=07-Oct-2010 13:52:02
		LINAC=A4
		MODALITY=X
		INPLANE_AXIS_DIR=TARGET_GUN
		CROSSPLANE_AXIS_DIR=LEFT_RIGHT
		DEPTH_AXIS_DIR=UP_DOWN
		ENERGY=6.00
		SSD=950.00
		WEDGE=None
		FIELD_INPLANE=100.00
		FIELD_CROSSPLANE=100.00
		FIELD_TYPE=RECTANGULAR
		GANTRY=0.00
		GANTRY_UPRIGHT_POSITION=0
		GANTRY_ROTATION=CW
		COLL_ANGLE=90.00
		COLL_OFFSET_INPLANE=0.00
		COLL_OFFSET_CROSSPLANE=0.00
		SCAN_DEVICE=STARCHECK
		ELECTROMETER=2D_ARRAY_INTERFACE
		DETECTOR=STARCHECK
		SCAN_CURVETYPE=CROSSPLANE_PROFILE
		SCAN_DEPTH=0.00
		SCAN_OFFAXIS_INPLANE=0.00
		SCAN_ANGLE=0.00
		SCAN_DIAGONAL=NOT_DIAGONAL
		MEAS_PRESET=TIME_PRESET
		MEAS_TIME=10.000
		MEAS_UNIT=GY
		PRESSURE=1013.25
		TEMPERATURE=20.00
		NORM_TEMPERATURE=20.00
		CORRECTION_FACTOR=1.0000
		CORRECTIONS=AIR_DENSITY_CORR;
		BEGIN_DATA
			-126.00		6.3961E-03
			-123.00		7.3517E-03
			-120.00		7.8406E-03
			-117.00		9.0137E-03
			-114.00		8.7938E-03
			-111.00		9.3659E-03
			-108.00		10.465E-03
			-105.00		10.856E-03
			-102.00		11.714E-03
			-99.00		12.710E-03
			-96.00		13.849E-03
			-93.00		14.950E-03
			-90.00		16.207E-03
			-87.00		17.875E-03
			-84.00		19.719E-03
			-81.00		21.368E-03
			-78.00		22.942E-03
			-75.00		26.291E-03
			-72.00		28.437E-03
			-69.00		32.502E-03
			-66.00		37.028E-03
			-63.00		41.918E-03
			-60.00		49.434E-03
			-57.00		62.272E-03
			-54.00		86.836E-03
			-51.00		164.73E-03
			-48.00		441.47E-03
			-45.00		594.33E-03
			-42.00		627.92E-03
			-39.00		644.42E-03
			-36.00		652.01E-03
			-33.00		653.58E-03
			-30.00		655.55E-03
			-27.00		658.69E-03
			-24.00		661.18E-03
			-21.00		660.89E-03
			-18.00		666.76E-03
			-15.00		666.88E-03
			-12.00		666.87E-03
			-9.00		669.77E-03
			-6.00		669.01E-03
			0.00		667.39E-03
			6.00		670.88E-03
			9.00		670.36E-03
			12.00		667.87E-03
			15.00		667.88E-03
			18.00		667.41E-03
			21.00		664.89E-03
			24.00		661.40E-03
			27.00		665.66E-03
			30.00		664.37E-03
			33.00		662.53E-03
			36.00		659.68E-03
			39.00		655.09E-03
			42.00		646.48E-03
			45.00		630.88E-03
			48.00		587.22E-03
			51.00		391.01E-03
			54.00		141.17E-03
			57.00		81.081E-03
			60.00		60.108E-03
			63.00		48.529E-03
			66.00		40.626E-03
			69.00		35.643E-03
			72.00		31.939E-03
			75.00		28.263E-03
			78.00		25.383E-03
			81.00		22.701E-03
			84.00		20.915E-03
			87.00		18.814E-03
			90.00		17.552E-03
			93.00		16.029E-03
			96.00		14.674E-03
			99.00		13.147E-03
			102.00		12.847E-03
			105.00		11.400E-03
			108.00		10.721E-03
			111.00		9.6387E-03
			114.00		9.4080E-03
			117.00		8.5225E-03
			120.00		7.7613E-03
			123.00		7.4526E-03
			126.00		7.1315E-03
		END_DATA
	END_SCAN  4
	BEGIN_SCAN  5
		TASK_NAME=MODE_INTERVAL
		PROGRAM=BeamAdjust 1.2
		MEAS_DATE=07-Oct-2010 13:52:02
		LINAC=A4
		MODALITY=X
		INPLANE_AXIS_DIR=TARGET_GUN
		CROSSPLANE_AXIS_DIR=LEFT_RIGHT
		DEPTH_AXIS_DIR=UP_DOWN
		ENERGY=6.00
		SSD=950.00
		WEDGE=None
		FIELD_INPLANE=100.00
		FIELD_CROSSPLANE=100.00
		FIELD_TYPE=RECTANGULAR
		GANTRY=0.00
		GANTRY_UPRIGHT_POSITION=0
		GANTRY_ROTATION=CW
		COLL_ANGLE=90.00
		COLL_OFFSET_INPLANE=0.00
		COLL_OFFSET_CROSSPLANE=0.00
		SCAN_DEVICE=STARCHECK
		ELECTROMETER=2D_ARRAY_INTERFACE
		DETECTOR=STARCHECK
		SCAN_CURVETYPE=CROSSPLANE_PROFILE
		SCAN_DEPTH=0.00
		SCAN_OFFAXIS_INPLANE=50.00
		SCAN_ANGLE=0.00
		SCAN_DIAGONAL=NOT_DIAGONAL
		MEAS_PRESET=TIME_PRESET
		MEAS_TIME=10.000
		MEAS_UNIT=GY
		PRESSURE=1013.25
		TEMPERATURE=20.00
		NORM_TEMPERATURE=20.00
		CORRECTION_FACTOR=1.0000
		CORRECTIONS=AIR_DENSITY_CORR;
		BEGIN_DATA
			-30.00		270.46E-03
			-15.00		287.28E-03
			15.00		256.81E-03
			30.00		263.60E-03
		END_DATA
	END_SCAN  5
	BEGIN_SCAN  6
		TASK_NAME=MODE_INTERVAL
		PROGRAM=BeamAdjust 1.2
		MEAS_DATE=07-Oct-2010 13:52:02
		LINAC=A4
		MODALITY=X
		INPLANE_AXIS_DIR=TARGET_GUN
		CROSSPLANE_AXIS_DIR=LEFT_RIGHT
		DEPTH_AXIS_DIR=UP_DOWN
		ENERGY=6.00
		SSD=950.00
		WEDGE=None
		FIELD_INPLANE=100.00
		FIELD_CROSSPLANE=100.00
		FIELD_TYPE=RECTANGULAR
		GANTRY=0.00
		GANTRY_UPRIGHT_POSITION=0
		GANTRY_ROTATION=CW
		COLL_ANGLE=90.00
		COLL_OFFSET_INPLANE=0.00
		COLL_OFFSET_CROSSPLANE=0.00
		SCAN_DEVICE=STARCHECK
		ELECTROMETER=2D_ARRAY_INTERFACE
		DETECTOR=STARCHECK
		SCAN_CURVETYPE=CROSSPLANE_PROFILE
		SCAN_DEPTH=0.00
		SCAN_OFFAXIS_INPLANE=100.00
		SCAN_ANGLE=0.00
		SCAN_DIAGONAL=NOT_DIAGONAL
		MEAS_PRESET=TIME_PRESET
		MEAS_TIME=10.000
		MEAS_UNIT=GY
		PRESSURE=1013.25
		TEMPERATURE=20.00
		NORM_TEMPERATURE=20.00
		CORRECTION_FACTOR=1.0000
		CORRECTIONS=AIR_DENSITY_CORR;
		BEGIN_DATA
			-60.00		10.230E-03
			-30.00		14.912E-03
			30.00		15.603E-03
			60.00		9.3224E-03
		END_DATA
	END_SCAN  6
	BEGIN_SCAN  7
		TASK_NAME=MODE_INTERVAL
		PROGRAM=BeamAdjust 1.2
		MEAS_DATE=07-Oct-2010 13:52:02
		LINAC=A4
		MODALITY=X
		INPLANE_AXIS_DIR=TARGET_GUN
		CROSSPLANE_AXIS_DIR=LEFT_RIGHT
		DEPTH_AXIS_DIR=UP_DOWN
		ENERGY=6.00
		SSD=950.00
		WEDGE=None
		FIELD_INPLANE=100.00
		FIELD_CROSSPLANE=100.00
		FIELD_TYPE=RECTANGULAR
		GANTRY=0.00
		GANTRY_UPRIGHT_POSITION=0
		GANTRY_ROTATION=CW
		COLL_ANGLE=90.00
		COLL_OFFSET_INPLANE=0.00
		COLL_OFFSET_CROSSPLANE=0.00
		SCAN_DEVICE=STARCHECK
		ELECTROMETER=2D_ARRAY_INTERFACE
		DETECTOR=STARCHECK
		SCAN_CURVETYPE=CROSSPLANE_PROFILE
		SCAN_DEPTH=0.00
		SCAN_OFFAXIS_INPLANE=130.00
		SCAN_ANGLE=0.00
		SCAN_DIAGONAL=NOT_DIAGONAL
		MEAS_PRESET=TIME_PRESET
		MEAS_TIME=10.000
		MEAS_UNIT=GY
		PRESSURE=1013.25
		TEMPERATURE=20.00
		NORM_TEMPERATURE=20.00
		CORRECTION_FACTOR=1.0000
		CORRECTIONS=AIR_DENSITY_CORR;
		BEGIN_DATA
			-130.00		2.1722E-03
			-80.00		4.3010E-03
			-40.00		8.2280E-03
			40.00		7.3525E-03
			80.00		5.1039E-03
			130.00		2.4393E-03
		END_DATA
	END_SCAN  7
	BEGIN_SCAN  8
		TASK_NAME=MODE_INTERVAL
		PROGRAM=BeamAdjust 1.2
		MEAS_DATE=07-Oct-2010 13:52:02
		LINAC=A4
		MODALITY=X
		INPLANE_AXIS_DIR=TARGET_GUN
		CROSSPLANE_AXIS_DIR=LEFT_RIGHT
		DEPTH_AXIS_DIR=UP_DOWN
		ENERGY=6.00
		SSD=950.00
		WEDGE=None
		FIELD_INPLANE=100.00
		FIELD_CROSSPLANE=100.00
		FIELD_TYPE=RECTANGULAR
		GANTRY=0.00
		GANTRY_UPRIGHT_POSITION=0
		GANTRY_ROTATION=CW
		COLL_ANGLE=90.00
		COLL_OFFSET_INPLANE=0.00
		COLL_OFFSET_CROSSPLANE=0.00
		SCAN_DEVICE=STARCHECK
		ELECTROMETER=2D_ARRAY_INTERFACE
		DETECTOR=STARCHECK
		SCAN_CURVETYPE=INPLANE_PROFILE
		SCAN_DEPTH=0.00
		SCAN_OFFAXIS_CROSSPLANE=-130.00
		SCAN_ANGLE=0.00
		SCAN_DIAGONAL=NOT_DIAGONAL
		MEAS_PRESET=TIME_PRESET
		MEAS_TIME=10.000
		MEAS_UNIT=GY
		PRESSURE=1013.25
		TEMPERATURE=20.00
		NORM_TEMPERATURE=20.00
		CORRECTION_FACTOR=1.0000
		CORRECTIONS=AIR_DENSITY_CORR;
		BEGIN_DATA
			-130.00		2.6886E-03
			-125.00		2.5337E-03
			-120.00		3.0222E-03
			-115.00		3.5018E-03
			-110.00		3.2292E-03
			-105.00		3.4311E-03
			-100.00		4.1908E-03
			-95.00		4.3782E-03
			-90.00		4.6570E-03
			-85.00		4.4134E-03
			-80.00		4.2208E-03
			-75.00		4.9822E-03
			-70.00		5.1402E-03
			-65.00		5.2639E-03
			-60.00		5.0954E-03
			-55.00		5.9496E-03
			-50.00		4.3649E-03
			-45.00		4.7383E-03
			-40.00		4.9566E-03
			-35.00		5.7783E-03
			-30.00		5.7391E-03
			-25.00		5.2721E-03
			-20.00		5.2514E-03
			-15.00		5.0324E-03
			-10.00		5.1224E-03
			-5.00		6.1793E-03
			0.00		6.4528E-03
			5.00		6.7882E-03
			10.00		5.5974E-03
			15.00		5.6354E-03
			20.00		5.9891E-03
			25.00		5.0687E-03
			30.00		5.6349E-03
			35.00		5.7818E-03
			40.00		5.2110E-03
			45.00		5.0602E-03
			50.00		5.0399E-03
			55.00		4.3605E-03
			60.00		4.8314E-03
			65.00		4.1482E-03
			70.00		4.5600E-03
			75.00		4.3211E-03
			80.00		3.9415E-03
			85.00		3.2386E-03
			90.00		3.3673E-03
			95.00		3.4059E-03
			100.00		3.0907E-03
			105.00		3.0123E-03
			110.00		2.9511E-03
			115.00		2.5030E-03
			120.00		2.7326E-03
			125.00		2.3806E-03
			130.00		2.1722E-03
		END_DATA
	END_SCAN  8
	BEGIN_SCAN  9
		TASK_NAME=MODE_INTERVAL
		PROGRAM=BeamAdjust 1.2
		MEAS_DATE=07-Oct-2010 13:52:02
		LINAC=A4
		MODALITY=X
		INPLANE_AXIS_DIR=TARGET_GUN
		CROSSPLANE_AXIS_DIR=LEFT_RIGHT
		DEPTH_AXIS_DIR=UP_DOWN
		ENERGY=6.00
		SSD=950.00
		WEDGE=None
		FIELD_INPLANE=100.00
		FIELD_CROSSPLANE=100.00
		FIELD_TYPE=RECTANGULAR
		GANTRY=0.00
		GANTRY_UPRIGHT_POSITION=0
		GANTRY_ROTATION=CW
		COLL_ANGLE=90.00
		COLL_OFFSET_INPLANE=0.00
		COLL_OFFSET_CROSSPLANE=0.00
		SCAN_DEVICE=STARCHECK
		ELECTROMETER=2D_ARRAY_INTERFACE
		DETECTOR=STARCHECK
		SCAN_CURVETYPE=INPLANE_PROFILE
		SCAN_DEPTH=0.00
		SCAN_OFFAXIS_CROSSPLANE=-100.00
		SCAN_ANGLE=0.00
		SCAN_DIAGONAL=NOT_DIAGONAL
		MEAS_PRESET=TIME_PRESET
		MEAS_TIME=10.000
		MEAS_UNIT=GY
		PRESSURE=1013.25
		TEMPERATURE=20.00
		NORM_TEMPERATURE=20.00
		CORRECTION_FACTOR=1.0000
		CORRECTIONS=AIR_DENSITY_CORR;
		BEGIN_DATA
			-60.00		8.7963E-03
			-30.00		10.917E-03
			30.00		10.180E-03
			60.00		8.3247E-03
		END_DATA
	END_SCAN  9
	BEGIN_SCAN  10
		TASK_NAME=MODE_INTERVAL
		PROGRAM=BeamAdjust 1.2
		MEAS_DATE=07-Oct-2010 13:52:02
		LINAC=A4
		MODALITY=X
		INPLANE_AXIS_DIR=TARGET_GUN
		CROSSPLANE_AXIS_DIR=LEFT_RIGHT
		DEPTH_AXIS_DIR=UP_DOWN
		ENERGY=6.00
		SSD=950.00
		WEDGE=None
		FIELD_INPLANE=100.00
		FIELD_CROSSPLANE=100.00
		FIELD_TYPE=RECTANGULAR
		GANTRY=0.00
		GANTRY_UPRIGHT_POSITION=0
		GANTRY_ROTATION=CW
		COLL_ANGLE=90.00
		COLL_OFFSET_INPLANE=0.00
		COLL_OFFSET_CROSSPLANE=0.00
		SCAN_DEVICE=STARCHECK
		ELECTROMETER=2D_ARRAY_INTERFACE
		DETECTOR=STARCHECK
		SCAN_CURVETYPE=INPLANE_PROFILE
		SCAN_DEPTH=0.00
		SCAN_OFFAXIS_CROSSPLANE=-50.00
		SCAN_ANGLE=0.00
		SCAN_DIAGONAL=NOT_DIAGONAL
		MEAS_PRESET=TIME_PRESET
		MEAS_TIME=10.000
		MEAS_UNIT=GY
		PRESSURE=1013.25
		TEMPERATURE=20.00
		NORM_TEMPERATURE=20.00
		CORRECTION_FACTOR=1.0000
		CORRECTIONS=AIR_DENSITY_CORR;
		BEGIN_DATA
			-30.00		265.53E-03
			-15.00		263.15E-03
			15.00		253.07E-03
			30.00		242.34E-03
		END_DATA
	END_SCAN  10
	BEGIN_SCAN  11
		TASK_NAME=MODE_INTERVAL
		PROGRAM=BeamAdjust 1.2
		MEAS_DATE=07-Oct-2010 13:52:02
		LINAC=A4
		MODALITY=X
		INPLANE_AXIS_DIR=TARGET_GUN
		CROSSPLANE_AXIS_DIR=LEFT_RIGHT
		DEPTH_AXIS_DIR=UP_DOWN
		ENERGY=6.00
		SSD=950.00
		WEDGE=None
		FIELD_INPLANE=100.00
		FIELD_CROSSPLANE=100.00
		FIELD_TYPE=RECTANGULAR
		GANTRY=0.00
		GANTRY_UPRIGHT_POSITION=0
		GANTRY_ROTATION=CW
		COLL_ANGLE=90.00
		COLL_OFFSET_INPLANE=0.00
		COLL_OFFSET_CROSSPLANE=0.00
		SCAN_DEVICE=STARCHECK
		ELECTROMETER=2D_ARRAY_INTERFACE
		DETECTOR=STARCHECK
		SCAN_CURVETYPE=INPLANE_PROFILE
		SCAN_DEPTH=0.00
		SCAN_OFFAXIS_CROSSPLANE=0.00
		SCAN_ANGLE=0.00
		SCAN_DIAGONAL=NOT_DIAGONAL
		MEAS_PRESET=TIME_PRESET
		MEAS_TIME=10.000
		MEAS_UNIT=GY
		PRESSURE=1013.25
		TEMPERATURE=20.00
		NORM_TEMPERATURE=20.00
		CORRECTION_FACTOR=1.0000
		CORRECTIONS=AIR_DENSITY_CORR;
		BEGIN_DATA
			-126.00		9.1296E-03
			-123.00		9.0528E-03
			-120.00		10.162E-03
			-117.00		11.658E-03
			-114.00		12.642E-03
			-111.00		12.885E-03
			-108.00		13.763E-03
			-105.00		14.516E-03
			-102.00		16.126E-03
			-99.00		16.533E-03
			-96.00		18.242E-03
			-93.00		20.511E-03
			-90.00		22.398E-03
			-87.00		23.829E-03
			-84.00		25.808E-03
			-81.00		28.285E-03
			-78.00		30.564E-03
			-75.00		33.434E-03
			-72.00		37.254E-03
			-69.00		41.015E-03
			-66.00		46.237E-03
			-63.00		52.601E-03
			-60.00		62.805E-03
			-57.00		82.651E-03
			-54.00		134.24E-03
			-51.00		307.57E-03
			-48.00		557.79E-03
			-45.00		623.28E-03
			-42.00		643.21E-03
			-39.00		652.24E-03
			-36.00		657.81E-03
			-33.00		661.12E-03
			-30.00		665.30E-03
			-27.00		666.14E-03
			-24.00		665.03E-03
			-21.00		664.16E-03
			-18.00		670.70E-03
			-15.00		669.73E-03
			-12.00		670.70E-03
			-9.00		670.49E-03
			-6.00		668.03E-03
			0.00		667.39E-03
			6.00		672.17E-03
			9.00		671.74E-03
			12.00		670.63E-03
			15.00		668.57E-03
			18.00		663.88E-03
			21.00		663.79E-03
			24.00		660.42E-03
			27.00		661.81E-03
			30.00		657.79E-03
			33.00		655.63E-03
			36.00		653.31E-03
			39.00		641.92E-03
			42.00		630.20E-03
			45.00		596.25E-03
			48.00		432.48E-03
			51.00		188.42E-03
			54.00		98.546E-03
			57.00		70.361E-03
			60.00		56.856E-03
			63.00		48.943E-03
			66.00		43.403E-03
			69.00		38.906E-03
			72.00		35.311E-03
			75.00		31.747E-03
			78.00		28.438E-03
			81.00		26.276E-03
			84.00		24.638E-03
			87.00		22.315E-03
			90.00		21.288E-03
			93.00		19.607E-03
			96.00		18.195E-03
			99.00		16.773E-03
			102.00		15.477E-03
			105.00		14.096E-03
			108.00		13.576E-03
			111.00		12.598E-03
			114.00		11.760E-03
			117.00		11.255E-03
			120.00		10.371E-03
			123.00		9.8578E-03
			126.00		8.8912E-03
		END_DATA
	END_SCAN  11
	BEGIN_SCAN  12
		TASK_NAME=MODE_INTERVAL
		PROGRAM=BeamAdjust 1.2
		MEAS_DATE=07-Oct-2010 13:52:02
		LINAC=A4
		MODALITY=X
		INPLANE_AXIS_DIR=TARGET_GUN
		CROSSPLANE_AXIS_DIR=LEFT_RIGHT
		DEPTH_AXIS_DIR=UP_DOWN
		ENERGY=6.00
		SSD=950.00
		WEDGE=None
		FIELD_INPLANE=100.00
		FIELD_CROSSPLANE=100.00
		FIELD_TYPE=RECTANGULAR
		GANTRY=0.00
		GANTRY_UPRIGHT_POSITION=0
		GANTRY_ROTATION=CW
		COLL_ANGLE=90.00
		COLL_OFFSET_INPLANE=0.00
		COLL_OFFSET_CROSSPLANE=0.00
		SCAN_DEVICE=STARCHECK
		ELECTROMETER=2D_ARRAY_INTERFACE
		DETECTOR=STARCHECK
		SCAN_CURVETYPE=INPLANE_PROFILE
		SCAN_DEPTH=0.00
		SCAN_OFFAXIS_CROSSPLANE=50.00
		SCAN_ANGLE=0.00
		SCAN_DIAGONAL=NOT_DIAGONAL
		MEAS_PRESET=TIME_PRESET
		MEAS_TIME=10.000
		MEAS_UNIT=GY
		PRESSURE=1013.25
		TEMPERATURE=20.00
		NORM_TEMPERATURE=20.00
		CORRECTION_FACTOR=1.0000
		CORRECTIONS=AIR_DENSITY_CORR;
		BEGIN_DATA
			-30.00		458.70E-03
			-15.00		467.53E-03
			15.00		473.88E-03
			30.00		474.88E-03
		END_DATA
	END_SCAN  12
	BEGIN_SCAN  13
		TASK_NAME=MODE_INTERVAL
		PROGRAM=BeamAdjust 1.2
		MEAS_DATE=07-Oct-2010 13:52:02
		LINAC=A4
		MODALITY=X
		INPLANE_AXIS_DIR=TARGET_GUN
		CROSSPLANE_AXIS_DIR=LEFT_RIGHT
		DEPTH_AXIS_DIR=UP_DOWN
		ENERGY=6.00
		SSD=950.00
		WEDGE=None
		FIELD_INPLANE=100.00
		FIELD_CROSSPLANE=100.00
		FIELD_TYPE=RECTANGULAR
		GANTRY=0.00
		GANTRY_UPRIGHT_POSITION=0
		GANTRY_ROTATION=CW
		COLL_ANGLE=90.00
		COLL_OFFSET_INPLANE=0.00
		COLL_OFFSET_CROSSPLANE=0.00
		SCAN_DEVICE=STARCHECK
		ELECTROMETER=2D_ARRAY_INTERFACE
		DETECTOR=STARCHECK
		SCAN_CURVETYPE=INPLANE_PROFILE
		SCAN_DEPTH=0.00
		SCAN_OFFAXIS_CROSSPLANE=100.00
		SCAN_ANGLE=0.00
		SCAN_DIAGONAL=NOT_DIAGONAL
		MEAS_PRESET=TIME_PRESET
		MEAS_TIME=10.000
		MEAS_UNIT=GY
		PRESSURE=1013.25
		TEMPERATURE=20.00
		NORM_TEMPERATURE=20.00
		CORRECTION_FACTOR=1.0000
		CORRECTIONS=AIR_DENSITY_CORR;
		BEGIN_DATA
			-60.00		8.4171E-03
			-30.00		10.736E-03
			30.00		10.797E-03
			60.00		7.6250E-03
		END_DATA
	END_SCAN  13
	BEGIN_SCAN  14
		TASK_NAME=MODE_INTERVAL
		PROGRAM=BeamAdjust 1.2
		MEAS_DATE=07-Oct-2010 13:52:02
		LINAC=A4
		MODALITY=X
		INPLANE_AXIS_DIR=TARGET_GUN
		CROSSPLANE_AXIS_DIR=LEFT_RIGHT
		DEPTH_AXIS_DIR=UP_DOWN
		ENERGY=6.00
		SSD=950.00
		WEDGE=None
		FIELD_INPLANE=100.00
		FIELD_CROSSPLANE=100.00
		FIELD_TYPE=RECTANGULAR
		GANTRY=0.00
		GANTRY_UPRIGHT_POSITION=0
		GANTRY_ROTATION=CW
		COLL_ANGLE=90.00
		COLL_OFFSET_INPLANE=0.00
		COLL_OFFSET_CROSSPLANE=0.00
		SCAN_DEVICE=STARCHECK
		ELECTROMETER=2D_ARRAY_INTERFACE
		DETECTOR=STARCHECK
		SCAN_CURVETYPE=INPLANE_PROFILE
		SCAN_DEPTH=0.00
		SCAN_OFFAXIS_CROSSPLANE=130.00
		SCAN_ANGLE=0.00
		SCAN_DIAGONAL=NOT_DIAGONAL
		MEAS_PRESET=TIME_PRESET
		MEAS_TIME=10.000
		MEAS_UNIT=GY
		PRESSURE=1013.25
		TEMPERATURE=20.00
		NORM_TEMPERATURE=20.00
		CORRECTION_FACTOR=1.0000
		CORRECTIONS=AIR_DENSITY_CORR;
		BEGIN_DATA
			-130.00		2.2950E-03
			-125.00		3.4960E-03
			-120.00		2.6943E-03
			-115.00		2.8575E-03
			-110.00		2.7507E-03
			-105.00		2.9635E-03
			-100.00		3.3508E-03
			-95.00		3.1889E-03
			-90.00		2.9650E-03
			-85.00		4.2235E-03
			-80.00		3.8421E-03
			-75.00		4.0902E-03
			-70.00		4.2594E-03
			-65.00		4.2580E-03
			-60.00		5.0585E-03
			-55.00		5.1429E-03
			-50.00		4.7271E-03
			-45.00		5.1400E-03
			-40.00		5.5081E-03
			-35.00		5.5273E-03
			-30.00		5.7537E-03
			-25.00		5.2935E-03
			-20.00		5.7402E-03
			-15.00		5.6454E-03
			-10.00		5.1653E-03
			-5.00		6.5217E-03
			0.00		6.4373E-03
			5.00		6.0524E-03
			10.00		6.0674E-03
			15.00		5.9693E-03
			20.00		5.6162E-03
			25.00		5.8647E-03
			30.00		5.3162E-03
			35.00		5.3486E-03
			40.00		5.6739E-03
			45.00		4.8438E-03
			50.00		4.9430E-03
			55.00		5.1423E-03
			60.00		4.8348E-03
			65.00		4.3387E-03
			70.00		4.2909E-03
			75.00		4.2710E-03
			80.00		4.1245E-03
			85.00		4.2617E-03
			90.00		2.9951E-03
			95.00		3.5285E-03
			100.00		3.6314E-03
			105.00		2.7521E-03
			110.00		3.0463E-03
			115.00		2.6342E-03
			120.00		2.5486E-03
			125.00		2.4305E-03
			130.00		2.4393E-03
		END_DATA
	END_SCAN  14
	BEGIN_SCAN  15
		TASK_NAME=MODE_INTERVAL
		PROGRAM=BeamAdjust 1.2
		MEAS_DATE=07-Oct-2010 13:52:02
		LINAC=A4
		MODALITY=X
		INPLANE_AXIS_DIR=TARGET_GUN
		CROSSPLANE_AXIS_DIR=LEFT_RIGHT
		DEPTH_AXIS_DIR=UP_DOWN
		ENERGY=6.00
		SSD=950.00
		WEDGE=None
		FIELD_INPLANE=100.00
		FIELD_CROSSPLANE=100.00
		FIELD_TYPE=RECTANGULAR
		GANTRY=0.00
		GANTRY_UPRIGHT_POSITION=0
		GANTRY_ROTATION=CW
		COLL_ANGLE=90.00
		COLL_OFFSET_INPLANE=0.00
		COLL_OFFSET_CROSSPLANE=0.00
		SCAN_DEVICE=STARCHECK
		ELECTROMETER=2D_ARRAY_INTERFACE
		DETECTOR=STARCHECK
		SCAN_CURVETYPE=INPLANE_PROFILE
		SCAN_DEPTH=0.00
		SCAN_OFFAXIS_CROSSPLANE=0.00
		SCAN_ANGLE=0.00
		SCAN_DIAGONAL=FIRST_DIAGONAL
		MEAS_PRESET=TIME_PRESET
		MEAS_TIME=10.000
		MEAS_UNIT=GY
		PRESSURE=1013.25
		TEMPERATURE=20.00
		NORM_TEMPERATURE=20.00
		CORRECTION_FACTOR=1.0000
		CORRECTIONS=AIR_DENSITY_CORR;
		BEGIN_DATA
			-172.40		2.7249E-03
			-169.40		2.9113E-03
			-166.40		4.0057E-03
			-163.40		3.7450E-03
			-160.40		4.2891E-03
			-157.40		4.1348E-03
			-154.40		3.9657E-03
			-151.40		4.0224E-03
			-148.40		4.5846E-03
			-145.40		5.3267E-03
			-142.40		5.7116E-03
			-139.40		5.9918E-03
			-136.40		6.1033E-03
			-133.40		6.8649E-03
			-130.40		7.1039E-03
			-127.40		7.4669E-03
			-124.40		8.1864E-03
			-121.40		8.6917E-03
			-118.40		9.9626E-03
			-115.40		10.627E-03
			-112.40		10.882E-03
			-109.40		12.437E-03
			-106.40		13.485E-03
			-103.40		14.040E-03
			-100.40		15.412E-03
			-97.40		17.805E-03
			-94.40		19.092E-03
			-91.40		21.527E-03
			-88.40		23.929E-03
			-85.40		26.599E-03
			-82.40		30.840E-03
			-79.40		35.986E-03
			-76.40		45.265E-03
			-73.40		69.528E-03
			-70.40		156.68E-03
			-67.40		357.11E-03
			-64.40		525.48E-03
			-61.40		592.73E-03
			-58.40		619.06E-03
			-55.40		633.28E-03
			-52.40		641.04E-03
			-49.40		647.13E-03
			-46.40		649.90E-03
			-43.40		652.33E-03
			-40.40		655.27E-03
			-37.40		660.08E-03
			-34.40		660.37E-03
			-31.40		662.26E-03
			-28.40		660.67E-03
			-25.40		663.50E-03
			-22.40		663.98E-03
			-19.40		664.24E-03
			-16.40		668.15E-03
			-13.40		671.39E-03
			0.00		667.39E-03
			13.40		672.70E-03
			16.40		667.76E-03
			19.40		667.34E-03
			22.40		665.99E-03
			25.40		665.04E-03
			28.40		664.28E-03
			31.40		661.91E-03
			34.40		658.63E-03
			37.40		661.14E-03
			40.40		658.38E-03
			43.40		655.51E-03
			46.40		653.75E-03
			49.40		648.42E-03
			52.40		643.29E-03
			55.40		632.52E-03
			58.40		619.56E-03
			61.40		590.85E-03
			64.40		512.09E-03
			67.40		361.32E-03
			70.40		176.67E-03
			73.40		78.841E-03
			76.40		48.963E-03
			79.40		37.888E-03
			82.40		31.941E-03
			85.40		27.545E-03
			88.40		24.791E-03
			91.40		22.009E-03
			94.40		19.967E-03
			97.40		17.894E-03
			100.40		16.456E-03
			103.40		15.116E-03
			106.40		13.829E-03
			109.40		12.735E-03
			112.40		11.135E-03
			115.40		11.224E-03
			118.40		9.4090E-03
			121.40		8.7528E-03
			124.40		8.1940E-03
			127.40		8.0999E-03
			130.40		7.7380E-03
			133.40		6.8432E-03
			136.40		5.8116E-03
			139.40		5.4266E-03
			142.40		5.1154E-03
			145.40		4.9288E-03
			148.40		4.9166E-03
			151.40		4.3130E-03
			154.40		4.3461E-03
			157.40		4.6804E-03
			160.40		3.0036E-03
			163.40		2.9832E-03
			166.40		3.3169E-03
			169.40		3.1224E-03
			172.40		3.3235E-03
		END_DATA
	END_SCAN  15
	BEGIN_SCAN  16
		TASK_NAME=MODE_INTERVAL
		PROGRAM=BeamAdjust 1.2
		MEAS_DATE=07-Oct-2010 13:52:02
		LINAC=A4
		MODALITY=X
		INPLANE_AXIS_DIR=GUN_TARGET
		CROSSPLANE_AXIS_DIR=LEFT_RIGHT
		DEPTH_AXIS_DIR=UP_DOWN
		ENERGY=6.00
		SSD=950.00
		WEDGE=None
		FIELD_INPLANE=100.00
		FIELD_CROSSPLANE=100.00
		FIELD_TYPE=RECTANGULAR
		GANTRY=0.00
		GANTRY_UPRIGHT_POSITION=0
		GANTRY_ROTATION=CW
		COLL_ANGLE=90.00
		COLL_OFFSET_INPLANE=0.00
		COLL_OFFSET_CROSSPLANE=0.00
		SCAN_DEVICE=STARCHECK
		ELECTROMETER=2D_ARRAY_INTERFACE
		DETECTOR=STARCHECK
		SCAN_CURVETYPE=INPLANE_PROFILE
		SCAN_DEPTH=0.00
		SCAN_OFFAXIS_CROSSPLANE=0.00
		SCAN_ANGLE=0.00
		SCAN_DIAGONAL=SECOND_DIAGONAL
		MEAS_PRESET=TIME_PRESET
		MEAS_TIME=10.000
		MEAS_UNIT=GY
		PRESSURE=1013.25
		TEMPERATURE=20.00
		NORM_TEMPERATURE=20.00
		CORRECTION_FACTOR=1.0000
		CORRECTIONS=AIR_DENSITY_CORR;
		BEGIN_DATA
			-172.40		3.1179E-03
			-169.40		3.2730E-03
			-166.40		3.3912E-03
			-163.40		3.1753E-03
			-160.40		3.7174E-03
			-157.40		4.1529E-03
			-154.40		4.1383E-03
			-151.40		4.5778E-03
			-148.40		5.4618E-03
			-145.40		5.0273E-03
			-142.40		5.5148E-03
			-139.40		5.5751E-03
			-136.40		5.8474E-03
			-133.40		7.0937E-03
			-130.40		7.3259E-03
			-127.40		8.0917E-03
			-124.40		8.6764E-03
			-121.40		9.1964E-03
			-118.40		9.8429E-03
			-115.40		10.350E-03
			-112.40		11.251E-03
			-109.40		12.831E-03
			-106.40		14.550E-03
			-103.40		15.068E-03
			-100.40		16.827E-03
			-97.40		18.205E-03
			-94.40		19.704E-03
			-91.40		22.805E-03
			-88.40		24.721E-03
			-85.40		28.161E-03
			-82.40		32.855E-03
			-79.40		40.079E-03
			-76.40		54.383E-03
			-73.40		98.828E-03
			-70.40		249.24E-03
			-67.40		460.85E-03
			-64.40		573.90E-03
			-61.40		613.73E-03
			-58.40		633.80E-03
			-55.40		641.91E-03
			-52.40		651.42E-03
			-49.40		655.76E-03
			-46.40		658.58E-03
			-43.40		661.06E-03
			-40.40		663.11E-03
			-37.40		666.27E-03
			-34.40		665.70E-03
			-31.40		666.67E-03
			-28.40		668.64E-03
			-25.40		667.53E-03
			-22.40		666.03E-03
			-19.40		669.28E-03
			-16.40		670.85E-03
			-13.40		673.45E-03
			0.00		667.39E-03
			13.40		670.77E-03
			16.40		667.94E-03
			19.40		665.13E-03
			22.40		662.32E-03
			25.40		662.05E-03
			28.40		660.80E-03
			31.40		658.95E-03
			34.40		655.73E-03
			37.40		655.01E-03
			40.40		653.74E-03
			43.40		651.81E-03
			46.40		648.73E-03
			49.40		643.94E-03
			52.40		635.09E-03
			55.40		624.77E-03
			58.40		610.08E-03
			61.40		571.18E-03
			64.40		463.13E-03
			67.40		255.93E-03
			70.40		103.32E-03
			73.40		55.869E-03
			76.40		40.784E-03
			79.40		33.240E-03
			82.40		29.158E-03
			85.40		26.278E-03
			88.40		22.964E-03
			91.40		20.796E-03
			94.40		18.886E-03
			97.40		17.260E-03
			100.40		14.884E-03
			103.40		13.704E-03
			106.40		13.205E-03
			109.40		11.643E-03
			112.40		10.800E-03
			115.40		9.8602E-03
			118.40		9.3629E-03
			121.40		8.5528E-03
			124.40		7.8956E-03
			127.40		7.2817E-03
			130.40		7.1905E-03
			133.40		6.5119E-03
			136.40		5.6660E-03
			139.40		6.2259E-03
			142.40		5.5802E-03
			145.40		5.5529E-03
			148.40		4.9644E-03
			151.40		4.2694E-03
			154.40		4.0454E-03
			157.40		3.9825E-03
			160.40		3.6249E-03
			163.40		3.9410E-03
			166.40		4.1692E-03
			169.40		2.8705E-03
			172.40		2.6015E-03
		END_DATA
	END_SCAN  16
END_SCAN_DATA
