BEGIN_SCAN_DATA
	FORMAT=CC-Export V1.9                  
	FILE_CREATION_DATE=07-Oct-2010 13:51:33
	LAST_MODIFIED=07-Oct-2010 13:51:33
	BEGIN_SCAN  1
		TASK_NAME=MODE_INTERVAL
		PROGRAM=BeamAdjust 1.2
		MEAS_DATE=07-Oct-2010 13:51:33
		LINAC=A4
		MODALITY=X
		INPLANE_AXIS_DIR=TARGET_GUN
		CROSSPLANE_AXIS_DIR=LEFT_RIGHT
		DEPTH_AXIS_DIR=UP_DOWN
		ENERGY=6.00
		SSD=950.00
		WEDGE=None
		FIELD_INPLANE=100.00
		FIELD_CROSSPLANE=100.00
		FIELD_TYPE=RECTANGULAR
		GANTRY=0.00
		GANTRY_UPRIGHT_POSITION=0
		GANTRY_ROTATION=CW
		COLL_ANGLE=90.00
		COLL_OFFSET_INPLANE=0.00
		COLL_OFFSET_CROSSPLANE=0.00
		SCAN_DEVICE=STARCHECK
		ELECTROMETER=2D_ARRAY_INTERFACE
		DETECTOR=STARCHECK
		SCAN_CURVETYPE=CROSSPLANE_PROFILE
		SCAN_DEPTH=0.00
		SCAN_OFFAXIS_INPLANE=-130.00
		SCAN_ANGLE=0.00
		SCAN_DIAGONAL=NOT_DIAGONAL
		MEAS_PRESET=TIME_PRESET
		MEAS_TIME=10.000
		MEAS_UNIT=GY
		PRESSURE=1013.25
		TEMPERATURE=20.00
		NORM_TEMPERATURE=20.00
		CORRECTION_FACTOR=1.0000
		CORRECTIONS=AIR_DENSITY_CORR;
		BEGIN_DATA
			-130.00		2.5505E-03
			-80.00		4.4182E-03
			-40.00		7.7195E-03
			40.00		7.1926E-03
			80.00		4.5660E-03
			130.00		2.9967E-03
		END_DATA
	END_SCAN  1
	BEGIN_SCAN  2
		TASK_NAME=MODE_INTERVAL
		PROGRAM=BeamAdjust 1.2
		MEAS_DATE=07-Oct-2010 13:51:33
		LINAC=A4
		MODALITY=X
		INPLANE_AXIS_DIR=TARGET_GUN
		CROSSPLANE_AXIS_DIR=LEFT_RIGHT
		DEPTH_AXIS_DIR=UP_DOWN
		ENERGY=6.00
		SSD=950.00
		WEDGE=None
		FIELD_INPLANE=100.00
		FIELD_CROSSPLANE=100.00
		FIELD_TYPE=RECTANGULAR
		GANTRY=0.00
		GANTRY_UPRIGHT_POSITION=0
		GANTRY_ROTATION=CW
		COLL_ANGLE=90.00
		COLL_OFFSET_INPLANE=0.00
		COLL_OFFSET_CROSSPLANE=0.00
		SCAN_DEVICE=STARCHECK
		ELECTROMETER=2D_ARRAY_INTERFACE
		DETECTOR=STARCHECK
		SCAN_CURVETYPE=CROSSPLANE_PROFILE
		SCAN_DEPTH=0.00
		SCAN_OFFAXIS_INPLANE=-100.00
		SCAN_ANGLE=0.00
		SCAN_DIAGONAL=NOT_DIAGONAL
		MEAS_PRESET=TIME_PRESET
		MEAS_TIME=10.000
		MEAS_UNIT=GY
		PRESSURE=1013.25
		TEMPERATURE=20.00
		NORM_TEMPERATURE=20.00
		CORRECTION_FACTOR=1.0000
		CORRECTIONS=AIR_DENSITY_CORR;
		BEGIN_DATA
			-60.00		10.377E-03
			-30.00		14.320E-03
			30.00		15.245E-03
			60.00		10.456E-03
		END_DATA
	END_SCAN  2
	BEGIN_SCAN  3
		TASK_NAME=MODE_INTERVAL
		PROGRAM=BeamAdjust 1.2
		MEAS_DATE=07-Oct-2010 13:51:33
		LINAC=A4
		MODALITY=X
		INPLANE_AXIS_DIR=TARGET_GUN
		CROSSPLANE_AXIS_DIR=LEFT_RIGHT
		DEPTH_AXIS_DIR=UP_DOWN
		ENERGY=6.00
		SSD=950.00
		WEDGE=None
		FIELD_INPLANE=100.00
		FIELD_CROSSPLANE=100.00
		FIELD_TYPE=RECTANGULAR
		GANTRY=0.00
		GANTRY_UPRIGHT_POSITION=0
		GANTRY_ROTATION=CW
		COLL_ANGLE=90.00
		COLL_OFFSET_INPLANE=0.00
		COLL_OFFSET_CROSSPLANE=0.00
		SCAN_DEVICE=STARCHECK
		ELECTROMETER=2D_ARRAY_INTERFACE
		DETECTOR=STARCHECK
		SCAN_CURVETYPE=CROSSPLANE_PROFILE
		SCAN_DEPTH=0.00
		SCAN_OFFAXIS_INPLANE=-50.00
		SCAN_ANGLE=0.00
		SCAN_DIAGONAL=NOT_DIAGONAL
		MEAS_PRESET=TIME_PRESET
		MEAS_TIME=10.000
		MEAS_UNIT=GY
		PRESSURE=1013.25
		TEMPERATURE=20.00
		NORM_TEMPERATURE=20.00
		CORRECTION_FACTOR=1.0000
		CORRECTIONS=AIR_DENSITY_CORR;
		BEGIN_DATA
			-30.00		391.79E-03
			-15.00		356.94E-03
			15.00		382.22E-03
			30.00		394.39E-03
		END_DATA
	END_SCAN  3
	BEGIN_SCAN  4
		TASK_NAME=MODE_INTERVAL
		PROGRAM=BeamAdjust 1.2
		MEAS_DATE=07-Oct-2010 13:51:33
		LINAC=A4
		MODALITY=X
		INPLANE_AXIS_DIR=TARGET_GUN
		CROSSPLANE_AXIS_DIR=LEFT_RIGHT
		DEPTH_AXIS_DIR=UP_DOWN
		ENERGY=6.00
		SSD=950.00
		WEDGE=None
		FIELD_INPLANE=100.00
		FIELD_CROSSPLANE=100.00
		FIELD_TYPE=RECTANGULAR
		GANTRY=0.00
		GANTRY_UPRIGHT_POSITION=0
		GANTRY_ROTATION=CW
		COLL_ANGLE=90.00
		COLL_OFFSET_INPLANE=0.00
		COLL_OFFSET_CROSSPLANE=0.00
		SCAN_DEVICE=STARCHECK
		ELECTROMETER=2D_ARRAY_INTERFACE
		DETECTOR=STARCHECK
		SCAN_CURVETYPE=CROSSPLANE_PROFILE
		SCAN_DEPTH=0.00
		SCAN_OFFAXIS_INPLANE=0.00
		SCAN_ANGLE=0.00
		SCAN_DIAGONAL=NOT_DIAGONAL
		MEAS_PRESET=TIME_PRESET
		MEAS_TIME=10.000
		MEAS_UNIT=GY
		PRESSURE=1013.25
		TEMPERATURE=20.00
		NORM_TEMPERATURE=20.00
		CORRECTION_FACTOR=1.0000
		CORRECTIONS=AIR_DENSITY_CORR;
		BEGIN_DATA
			-126.00		6.6618E-03
			-123.00		7.5876E-03
			-120.00		8.5051E-03
			-117.00		8.7335E-03
			-114.00		8.7583E-03
			-111.00		9.2529E-03
			-108.00		10.374E-03
			-105.00		10.787E-03
			-102.00		11.457E-03
			-99.00		12.714E-03
			-96.00		13.717E-03
			-93.00		14.884E-03
			-90.00		15.976E-03
			-87.00		17.657E-03
			-84.00		19.447E-03
			-81.00		20.846E-03
			-78.00		23.373E-03
			-75.00		25.630E-03
			-72.00		28.126E-03
			-69.00		31.919E-03
			-66.00		36.553E-03
			-63.00		41.311E-03
			-60.00		48.761E-03
			-57.00		60.697E-03
			-54.00		83.307E-03
			-51.00		150.82E-03
			-48.00		412.02E-03
			-45.00		588.13E-03
			-42.00		625.99E-03
			-39.00		643.39E-03
			-36.00		652.41E-03
			-33.00		653.04E-03
			-30.00		655.48E-03
			-27.00		658.49E-03
			-24.00		661.55E-03
			-21.00		660.84E-03
			-18.00		666.64E-03
			-15.00		666.81E-03
			-12.00		666.99E-03
			-9.00		669.76E-03
			-6.00		669.27E-03
			0.00		667.60E-03
			6.00		670.69E-03
			9.00		670.30E-03
			12.00		668.65E-03
			15.00		668.50E-03
			18.00		667.13E-03
			21.00		665.18E-03
			24.00		661.59E-03
			27.00		665.58E-03
			30.00		664.48E-03
			33.00		662.97E-03
			36.00		659.99E-03
			39.00		655.81E-03
			42.00		647.97E-03
			45.00		633.29E-03
			48.00		594.25E-03
			51.00		421.79E-03
			54.00		153.13E-03
			57.00		84.833E-03
			60.00		61.546E-03
			63.00		49.528E-03
			66.00		41.499E-03
			69.00		36.008E-03
			72.00		32.153E-03
			75.00		28.209E-03
			78.00		25.561E-03
			81.00		23.226E-03
			84.00		21.159E-03
			87.00		18.992E-03
			90.00		18.192E-03
			93.00		15.929E-03
			96.00		14.131E-03
			99.00		13.844E-03
			102.00		12.216E-03
			105.00		11.393E-03
			108.00		11.148E-03
			111.00		9.7853E-03
			114.00		9.2516E-03
			117.00		8.5610E-03
			120.00		7.8117E-03
			123.00		7.5934E-03
			126.00		7.3875E-03
		END_DATA
	END_SCAN  4
	BEGIN_SCAN  5
		TASK_NAME=MODE_INTERVAL
		PROGRAM=BeamAdjust 1.2
		MEAS_DATE=07-Oct-2010 13:51:33
		LINAC=A4
		MODALITY=X
		INPLANE_AXIS_DIR=TARGET_GUN
		CROSSPLANE_AXIS_DIR=LEFT_RIGHT
		DEPTH_AXIS_DIR=UP_DOWN
		ENERGY=6.00
		SSD=950.00
		WEDGE=None
		FIELD_INPLANE=100.00
		FIELD_CROSSPLANE=100.00
		FIELD_TYPE=RECTANGULAR
		GANTRY=0.00
		GANTRY_UPRIGHT_POSITION=0
		GANTRY_ROTATION=CW
		COLL_ANGLE=90.00
		COLL_OFFSET_INPLANE=0.00
		COLL_OFFSET_CROSSPLANE=0.00
		SCAN_DEVICE=STARCHECK
		ELECTROMETER=2D_ARRAY_INTERFACE
		DETECTOR=STARCHECK
		SCAN_CURVETYPE=CROSSPLANE_PROFILE
		SCAN_DEPTH=0.00
		SCAN_OFFAXIS_INPLANE=50.00
		SCAN_ANGLE=0.00
		SCAN_DIAGONAL=NOT_DIAGONAL
		MEAS_PRESET=TIME_PRESET
		MEAS_TIME=10.000
		MEAS_UNIT=GY
		PRESSURE=1013.25
		TEMPERATURE=20.00
		NORM_TEMPERATURE=20.00
		CORRECTION_FACTOR=1.0000
		CORRECTIONS=AIR_DENSITY_CORR;
		BEGIN_DATA
			-30.00		269.57E-03
			-15.00		286.49E-03
			15.00		257.39E-03
			30.00		263.19E-03
		END_DATA
	END_SCAN  5
	BEGIN_SCAN  6
		TASK_NAME=MODE_INTERVAL
		PROGRAM=BeamAdjust 1.2
		MEAS_DATE=07-Oct-2010 13:51:33
		LINAC=A4
		MODALITY=X
		INPLANE_AXIS_DIR=TARGET_GUN
		CROSSPLANE_AXIS_DIR=LEFT_RIGHT
		DEPTH_AXIS_DIR=UP_DOWN
		ENERGY=6.00
		SSD=950.00
		WEDGE=None
		FIELD_INPLANE=100.00
		FIELD_CROSSPLANE=100.00
		FIELD_TYPE=RECTANGULAR
		GANTRY=0.00
		GANTRY_UPRIGHT_POSITION=0
		GANTRY_ROTATION=CW
		COLL_ANGLE=90.00
		COLL_OFFSET_INPLANE=0.00
		COLL_OFFSET_CROSSPLANE=0.00
		SCAN_DEVICE=STARCHECK
		ELECTROMETER=2D_ARRAY_INTERFACE
		DETECTOR=STARCHECK
		SCAN_CURVETYPE=CROSSPLANE_PROFILE
		SCAN_DEPTH=0.00
		SCAN_OFFAXIS_INPLANE=100.00
		SCAN_ANGLE=0.00
		SCAN_DIAGONAL=NOT_DIAGONAL
		MEAS_PRESET=TIME_PRESET
		MEAS_TIME=10.000
		MEAS_UNIT=GY
		PRESSURE=1013.25
		TEMPERATURE=20.00
		NORM_TEMPERATURE=20.00
		CORRECTION_FACTOR=1.0000
		CORRECTIONS=AIR_DENSITY_CORR;
		BEGIN_DATA
			-60.00		10.246E-03
			-30.00		14.900E-03
			30.00		15.217E-03
			60.00		9.3387E-03
		END_DATA
	END_SCAN  6
	BEGIN_SCAN  7
		TASK_NAME=MODE_INTERVAL
		PROGRAM=BeamAdjust 1.2
		MEAS_DATE=07-Oct-2010 13:51:33
		LINAC=A4
		MODALITY=X
		INPLANE_AXIS_DIR=TARGET_GUN
		CROSSPLANE_AXIS_DIR=LEFT_RIGHT
		DEPTH_AXIS_DIR=UP_DOWN
		ENERGY=6.00
		SSD=950.00
		WEDGE=None
		FIELD_INPLANE=100.00
		FIELD_CROSSPLANE=100.00
		FIELD_TYPE=RECTANGULAR
		GANTRY=0.00
		GANTRY_UPRIGHT_POSITION=0
		GANTRY_ROTATION=CW
		COLL_ANGLE=90.00
		COLL_OFFSET_INPLANE=0.00
		COLL_OFFSET_CROSSPLANE=0.00
		SCAN_DEVICE=STARCHECK
		ELECTROMETER=2D_ARRAY_INTERFACE
		DETECTOR=STARCHECK
		SCAN_CURVETYPE=CROSSPLANE_PROFILE
		SCAN_DEPTH=0.00
		SCAN_OFFAXIS_INPLANE=130.00
		SCAN_ANGLE=0.00
		SCAN_DIAGONAL=NOT_DIAGONAL
		MEAS_PRESET=TIME_PRESET
		MEAS_TIME=10.000
		MEAS_UNIT=GY
		PRESSURE=1013.25
		TEMPERATURE=20.00
		NORM_TEMPERATURE=20.00
		CORRECTION_FACTOR=1.0000
		CORRECTIONS=AIR_DENSITY_CORR;
		BEGIN_DATA
			-130.00		2.0981E-03
			-80.00		4.0497E-03
			-40.00		7.3435E-03
			40.00		7.5704E-03
			80.00		4.7945E-03
			130.00		2.5620E-03
		END_DATA
	END_SCAN  7
	BEGIN_SCAN  8
		TASK_NAME=MODE_INTERVAL
		PROGRAM=BeamAdjust 1.2
		MEAS_DATE=07-Oct-2010 13:51:33
		LINAC=A4
		MODALITY=X
		INPLANE_AXIS_DIR=TARGET_GUN
		CROSSPLANE_AXIS_DIR=LEFT_RIGHT
		DEPTH_AXIS_DIR=UP_DOWN
		ENERGY=6.00
		SSD=950.00
		WEDGE=None
		FIELD_INPLANE=100.00
		FIELD_CROSSPLANE=100.00
		FIELD_TYPE=RECTANGULAR
		GANTRY=0.00
		GANTRY_UPRIGHT_POSITION=0
		GANTRY_ROTATION=CW
		COLL_ANGLE=90.00
		COLL_OFFSET_INPLANE=0.00
		COLL_OFFSET_CROSSPLANE=0.00
		SCAN_DEVICE=STARCHECK
		ELECTROMETER=2D_ARRAY_INTERFACE
		DETECTOR=STARCHECK
		SCAN_CURVETYPE=INPLANE_PROFILE
		SCAN_DEPTH=0.00
		SCAN_OFFAXIS_CROSSPLANE=-130.00
		SCAN_ANGLE=0.00
		SCAN_DIAGONAL=NOT_DIAGONAL
		MEAS_PRESET=TIME_PRESET
		MEAS_TIME=10.000
		MEAS_UNIT=GY
		PRESSURE=1013.25
		TEMPERATURE=20.00
		NORM_TEMPERATURE=20.00
		CORRECTION_FACTOR=1.0000
		CORRECTIONS=AIR_DENSITY_CORR;
		BEGIN_DATA
			-130.00		2.5505E-03
			-125.00		2.6179E-03
			-120.00		2.9600E-03
			-115.00		2.9591E-03
			-110.00		3.1819E-03
			-105.00		3.6530E-03
			-100.00		4.2592E-03
			-95.00		4.2237E-03
			-90.00		4.9042E-03
			-85.00		4.4992E-03
			-80.00		4.2193E-03
			-75.00		5.1546E-03
			-70.00		5.0305E-03
			-65.00		4.9828E-03
			-60.00		4.9996E-03
			-55.00		6.0416E-03
			-50.00		4.3308E-03
			-45.00		4.5691E-03
			-40.00		4.9891E-03
			-35.00		5.6659E-03
			-30.00		5.3326E-03
			-25.00		5.4931E-03
			-20.00		5.4854E-03
			-15.00		5.0087E-03
			-10.00		5.1062E-03
			-5.00		6.6283E-03
			0.00		5.8539E-03
			5.00		6.3731E-03
			10.00		5.7841E-03
			15.00		5.8164E-03
			20.00		6.0847E-03
			25.00		5.3887E-03
			30.00		5.5946E-03
			35.00		5.5374E-03
			40.00		4.9869E-03
			45.00		4.7505E-03
			50.00		4.6769E-03
			55.00		4.5062E-03
			60.00		4.7913E-03
			65.00		4.8499E-03
			70.00		4.1543E-03
			75.00		4.3374E-03
			80.00		3.7156E-03
			85.00		3.6143E-03
			90.00		3.2767E-03
			95.00		3.4403E-03
			100.00		2.9951E-03
			105.00		2.7237E-03
			110.00		2.8796E-03
			115.00		2.7124E-03
			120.00		2.8962E-03
			125.00		2.7239E-03
			130.00		2.0981E-03
		END_DATA
	END_SCAN  8
	BEGIN_SCAN  9
		TASK_NAME=MODE_INTERVAL
		PROGRAM=BeamAdjust 1.2
		MEAS_DATE=07-Oct-2010 13:51:33
		LINAC=A4
		MODALITY=X
		INPLANE_AXIS_DIR=TARGET_GUN
		CROSSPLANE_AXIS_DIR=LEFT_RIGHT
		DEPTH_AXIS_DIR=UP_DOWN
		ENERGY=6.00
		SSD=950.00
		WEDGE=None
		FIELD_INPLANE=100.00
		FIELD_CROSSPLANE=100.00
		FIELD_TYPE=RECTANGULAR
		GANTRY=0.00
		GANTRY_UPRIGHT_POSITION=0
		GANTRY_ROTATION=CW
		COLL_ANGLE=90.00
		COLL_OFFSET_INPLANE=0.00
		COLL_OFFSET_CROSSPLANE=0.00
		SCAN_DEVICE=STARCHECK
		ELECTROMETER=2D_ARRAY_INTERFACE
		DETECTOR=STARCHECK
		SCAN_CURVETYPE=INPLANE_PROFILE
		SCAN_DEPTH=0.00
		SCAN_OFFAXIS_CROSSPLANE=-100.00
		SCAN_ANGLE=0.00
		SCAN_DIAGONAL=NOT_DIAGONAL
		MEAS_PRESET=TIME_PRESET
		MEAS_TIME=10.000
		MEAS_UNIT=GY
		PRESSURE=1013.25
		TEMPERATURE=20.00
		NORM_TEMPERATURE=20.00
		CORRECTION_FACTOR=1.0000
		CORRECTIONS=AIR_DENSITY_CORR;
		BEGIN_DATA
			-60.00		8.9991E-03
			-30.00		10.053E-03
			30.00		9.6434E-03
			60.00		7.9185E-03
		END_DATA
	END_SCAN  9
	BEGIN_SCAN  10
		TASK_NAME=MODE_INTERVAL
		PROGRAM=BeamAdjust 1.2
		MEAS_DATE=07-Oct-2010 13:51:33
		LINAC=A4
		MODALITY=X
		INPLANE_AXIS_DIR=TARGET_GUN
		CROSSPLANE_AXIS_DIR=LEFT_RIGHT
		DEPTH_AXIS_DIR=UP_DOWN
		ENERGY=6.00
		SSD=950.00
		WEDGE=None
		FIELD_INPLANE=100.00
		FIELD_CROSSPLANE=100.00
		FIELD_TYPE=RECTANGULAR
		GANTRY=0.00
		GANTRY_UPRIGHT_POSITION=0
		GANTRY_ROTATION=CW
		COLL_ANGLE=90.00
		COLL_OFFSET_INPLANE=0.00
		COLL_OFFSET_CROSSPLANE=0.00
		SCAN_DEVICE=STARCHECK
		ELECTROMETER=2D_ARRAY_INTERFACE
		DETECTOR=STARCHECK
		SCAN_CURVETYPE=INPLANE_PROFILE
		SCAN_DEPTH=0.00
		SCAN_OFFAXIS_CROSSPLANE=-50.00
		SCAN_ANGLE=0.00
		SCAN_DIAGONAL=NOT_DIAGONAL
		MEAS_PRESET=TIME_PRESET
		MEAS_TIME=10.000
		MEAS_UNIT=GY
		PRESSURE=1013.25
		TEMPERATURE=20.00
		NORM_TEMPERATURE=20.00
		CORRECTION_FACTOR=1.0000
		CORRECTIONS=AIR_DENSITY_CORR;
		BEGIN_DATA
			-30.00		241.61E-03
			-15.00		239.13E-03
			15.00		229.39E-03
			30.00		219.22E-03
		END_DATA
	END_SCAN  10
	BEGIN_SCAN  11
		TASK_NAME=MODE_INTERVAL
		PROGRAM=BeamAdjust 1.2
		MEAS_DATE=07-Oct-2010 13:51:33
		LINAC=A4
		MODALITY=X
		INPLANE_AXIS_DIR=TARGET_GUN
		CROSSPLANE_AXIS_DIR=LEFT_RIGHT
		DEPTH_AXIS_DIR=UP_DOWN
		ENERGY=6.00
		SSD=950.00
		WEDGE=None
		FIELD_INPLANE=100.00
		FIELD_CROSSPLANE=100.00
		FIELD_TYPE=RECTANGULAR
		GANTRY=0.00
		GANTRY_UPRIGHT_POSITION=0
		GANTRY_ROTATION=CW
		COLL_ANGLE=90.00
		COLL_OFFSET_INPLANE=0.00
		COLL_OFFSET_CROSSPLANE=0.00
		SCAN_DEVICE=STARCHECK
		ELECTROMETER=2D_ARRAY_INTERFACE
		DETECTOR=STARCHECK
		SCAN_CURVETYPE=INPLANE_PROFILE
		SCAN_DEPTH=0.00
		SCAN_OFFAXIS_CROSSPLANE=0.00
		SCAN_ANGLE=0.00
		SCAN_DIAGONAL=NOT_DIAGONAL
		MEAS_PRESET=TIME_PRESET
		MEAS_TIME=10.000
		MEAS_UNIT=GY
		PRESSURE=1013.25
		TEMPERATURE=20.00
		NORM_TEMPERATURE=20.00
		CORRECTION_FACTOR=1.0000
		CORRECTIONS=AIR_DENSITY_CORR;
		BEGIN_DATA
			-126.00		9.0892E-03
			-123.00		9.1891E-03
			-120.00		10.382E-03
			-117.00		11.848E-03
			-114.00		11.936E-03
			-111.00		12.983E-03
			-108.00		13.675E-03
			-105.00		14.719E-03
			-102.00		16.483E-03
			-99.00		16.770E-03
			-96.00		18.072E-03
			-93.00		20.452E-03
			-90.00		21.981E-03
			-87.00		23.419E-03
			-84.00		25.791E-03
			-81.00		28.245E-03
			-78.00		30.704E-03
			-75.00		33.664E-03
			-72.00		37.071E-03
			-69.00		40.709E-03
			-66.00		46.222E-03
			-63.00		52.940E-03
			-60.00		63.128E-03
			-57.00		82.643E-03
			-54.00		134.33E-03
			-51.00		308.91E-03
			-48.00		558.01E-03
			-45.00		623.09E-03
			-42.00		643.36E-03
			-39.00		651.95E-03
			-36.00		657.60E-03
			-33.00		661.52E-03
			-30.00		665.11E-03
			-27.00		665.51E-03
			-24.00		665.01E-03
			-21.00		664.16E-03
			-18.00		670.75E-03
			-15.00		669.23E-03
			-12.00		671.09E-03
			-9.00		670.83E-03
			-6.00		667.82E-03
			0.00		667.60E-03
			6.00		672.32E-03
			9.00		671.77E-03
			12.00		670.55E-03
			15.00		668.66E-03
			18.00		664.39E-03
			21.00		663.67E-03
			24.00		660.68E-03
			27.00		662.62E-03
			30.00		658.11E-03
			33.00		655.93E-03
			36.00		653.88E-03
			39.00		642.66E-03
			42.00		630.42E-03
			45.00		596.62E-03
			48.00		431.86E-03
			51.00		187.74E-03
			54.00		98.672E-03
			57.00		70.751E-03
			60.00		56.790E-03
			63.00		48.836E-03
			66.00		44.004E-03
			69.00		38.829E-03
			72.00		35.236E-03
			75.00		31.729E-03
			78.00		28.505E-03
			81.00		26.384E-03
			84.00		24.643E-03
			87.00		22.790E-03
			90.00		21.063E-03
			93.00		19.308E-03
			96.00		18.403E-03
			99.00		17.134E-03
			102.00		15.242E-03
			105.00		14.448E-03
			108.00		13.940E-03
			111.00		12.379E-03
			114.00		12.048E-03
			117.00		11.140E-03
			120.00		10.603E-03
			123.00		9.6173E-03
			126.00		8.9167E-03
		END_DATA
	END_SCAN  11
	BEGIN_SCAN  12
		TASK_NAME=MODE_INTERVAL
		PROGRAM=BeamAdjust 1.2
		MEAS_DATE=07-Oct-2010 13:51:33
		LINAC=A4
		MODALITY=X
		INPLANE_AXIS_DIR=TARGET_GUN
		CROSSPLANE_AXIS_DIR=LEFT_RIGHT
		DEPTH_AXIS_DIR=UP_DOWN
		ENERGY=6.00
		SSD=950.00
		WEDGE=None
		FIELD_INPLANE=100.00
		FIELD_CROSSPLANE=100.00
		FIELD_TYPE=RECTANGULAR
		GANTRY=0.00
		GANTRY_UPRIGHT_POSITION=0
		GANTRY_ROTATION=CW
		COLL_ANGLE=90.00
		COLL_OFFSET_INPLANE=0.00
		COLL_OFFSET_CROSSPLANE=0.00
		SCAN_DEVICE=STARCHECK
		ELECTROMETER=2D_ARRAY_INTERFACE
		DETECTOR=STARCHECK
		SCAN_CURVETYPE=INPLANE_PROFILE
		SCAN_DEPTH=0.00
		SCAN_OFFAXIS_CROSSPLANE=50.00
		SCAN_ANGLE=0.00
		SCAN_DIAGONAL=NOT_DIAGONAL
		MEAS_PRESET=TIME_PRESET
		MEAS_TIME=10.000
		MEAS_UNIT=GY
		PRESSURE=1013.25
		TEMPERATURE=20.00
		NORM_TEMPERATURE=20.00
		CORRECTION_FACTOR=1.0000
		CORRECTIONS=AIR_DENSITY_CORR;
		BEGIN_DATA
			-30.00		482.69E-03
			-15.00		490.80E-03
			15.00		497.03E-03
			30.00		498.19E-03
		END_DATA
	END_SCAN  12
	BEGIN_SCAN  13
		TASK_NAME=MODE_INTERVAL
		PROGRAM=BeamAdjust 1.2
		MEAS_DATE=07-Oct-2010 13:51:33
		LINAC=A4
		MODALITY=X
		INPLANE_AXIS_DIR=TARGET_GUN
		CROSSPLANE_AXIS_DIR=LEFT_RIGHT
		DEPTH_AXIS_DIR=UP_DOWN
		ENERGY=6.00
		SSD=950.00
		WEDGE=None
		FIELD_INPLANE=100.00
		FIELD_CROSSPLANE=100.00
		FIELD_TYPE=RECTANGULAR
		GANTRY=0.00
		GANTRY_UPRIGHT_POSITION=0
		GANTRY_ROTATION=CW
		COLL_ANGLE=90.00
		COLL_OFFSET_INPLANE=0.00
		COLL_OFFSET_CROSSPLANE=0.00
		SCAN_DEVICE=STARCHECK
		ELECTROMETER=2D_ARRAY_INTERFACE
		DETECTOR=STARCHECK
		SCAN_CURVETYPE=INPLANE_PROFILE
		SCAN_DEPTH=0.00
		SCAN_OFFAXIS_CROSSPLANE=100.00
		SCAN_ANGLE=0.00
		SCAN_DIAGONAL=NOT_DIAGONAL
		MEAS_PRESET=TIME_PRESET
		MEAS_TIME=10.000
		MEAS_UNIT=GY
		PRESSURE=1013.25
		TEMPERATURE=20.00
		NORM_TEMPERATURE=20.00
		CORRECTION_FACTOR=1.0000
		CORRECTIONS=AIR_DENSITY_CORR;
		BEGIN_DATA
			-60.00		8.8157E-03
			-30.00		10.797E-03
			30.00		11.088E-03
			60.00		8.1466E-03
		END_DATA
	END_SCAN  13
	BEGIN_SCAN  14
		TASK_NAME=MODE_INTERVAL
		PROGRAM=BeamAdjust 1.2
		MEAS_DATE=07-Oct-2010 13:51:33
		LINAC=A4
		MODALITY=X
		INPLANE_AXIS_DIR=TARGET_GUN
		CROSSPLANE_AXIS_DIR=LEFT_RIGHT
		DEPTH_AXIS_DIR=UP_DOWN
		ENERGY=6.00
		SSD=950.00
		WEDGE=None
		FIELD_INPLANE=100.00
		FIELD_CROSSPLANE=100.00
		FIELD_TYPE=RECTANGULAR
		GANTRY=0.00
		GANTRY_UPRIGHT_POSITION=0
		GANTRY_ROTATION=CW
		COLL_ANGLE=90.00
		COLL_OFFSET_INPLANE=0.00
		COLL_OFFSET_CROSSPLANE=0.00
		SCAN_DEVICE=STARCHECK
		ELECTROMETER=2D_ARRAY_INTERFACE
		DETECTOR=STARCHECK
		SCAN_CURVETYPE=INPLANE_PROFILE
		SCAN_DEPTH=0.00
		SCAN_OFFAXIS_CROSSPLANE=130.00
		SCAN_ANGLE=0.00
		SCAN_DIAGONAL=NOT_DIAGONAL
		MEAS_PRESET=TIME_PRESET
		MEAS_TIME=10.000
		MEAS_UNIT=GY
		PRESSURE=1013.25
		TEMPERATURE=20.00
		NORM_TEMPERATURE=20.00
		CORRECTION_FACTOR=1.0000
		CORRECTIONS=AIR_DENSITY_CORR;
		BEGIN_DATA
			-130.00		2.9967E-03
			-125.00		3.0390E-03
			-120.00		2.5363E-03
			-115.00		2.5729E-03
			-110.00		2.9906E-03
			-105.00		2.9203E-03
			-100.00		3.2393E-03
			-95.00		3.2557E-03
			-90.00		3.2049E-03
			-85.00		4.0746E-03
			-80.00		3.9350E-03
			-75.00		4.2528E-03
			-70.00		4.4201E-03
			-65.00		4.1001E-03
			-60.00		5.6549E-03
			-55.00		4.7266E-03
			-50.00		4.4362E-03
			-45.00		5.2890E-03
			-40.00		5.4623E-03
			-35.00		5.3912E-03
			-30.00		5.5933E-03
			-25.00		5.7789E-03
			-20.00		5.6885E-03
			-15.00		5.8817E-03
			-10.00		5.4383E-03
			-5.00		6.3246E-03
			0.00		6.4065E-03
			5.00		6.1316E-03
			10.00		6.2016E-03
			15.00		5.4195E-03
			20.00		5.6413E-03
			25.00		5.8528E-03
			30.00		5.2271E-03
			35.00		5.6062E-03
			40.00		5.6681E-03
			45.00		5.3280E-03
			50.00		4.8398E-03
			55.00		5.1924E-03
			60.00		4.7935E-03
			65.00		4.1403E-03
			70.00		4.0332E-03
			75.00		4.6620E-03
			80.00		4.4982E-03
			85.00		3.8814E-03
			90.00		3.5123E-03
			95.00		3.4825E-03
			100.00		3.5200E-03
			105.00		2.5640E-03
			110.00		2.8985E-03
			115.00		2.6725E-03
			120.00		2.7153E-03
			125.00		2.4821E-03
			130.00		2.5620E-03
		END_DATA
	END_SCAN  14
	BEGIN_SCAN  15
		TASK_NAME=MODE_INTERVAL
		PROGRAM=BeamAdjust 1.2
		MEAS_DATE=07-Oct-2010 13:51:33
		LINAC=A4
		MODALITY=X
		INPLANE_AXIS_DIR=TARGET_GUN
		CROSSPLANE_AXIS_DIR=LEFT_RIGHT
		DEPTH_AXIS_DIR=UP_DOWN
		ENERGY=6.00
		SSD=950.00
		WEDGE=None
		FIELD_INPLANE=100.00
		FIELD_CROSSPLANE=100.00
		FIELD_TYPE=RECTANGULAR
		GANTRY=0.00
		GANTRY_UPRIGHT_POSITION=0
		GANTRY_ROTATION=CW
		COLL_ANGLE=90.00
		COLL_OFFSET_INPLANE=0.00
		COLL_OFFSET_CROSSPLANE=0.00
		SCAN_DEVICE=STARCHECK
		ELECTROMETER=2D_ARRAY_INTERFACE
		DETECTOR=STARCHECK
		SCAN_CURVETYPE=INPLANE_PROFILE
		SCAN_DEPTH=0.00
		SCAN_OFFAXIS_CROSSPLANE=0.00
		SCAN_ANGLE=0.00
		SCAN_DIAGONAL=FIRST_DIAGONAL
		MEAS_PRESET=TIME_PRESET
		MEAS_TIME=10.000
		MEAS_UNIT=GY
		PRESSURE=1013.25
		TEMPERATURE=20.00
		NORM_TEMPERATURE=20.00
		CORRECTION_FACTOR=1.0000
		CORRECTIONS=AIR_DENSITY_CORR;
		BEGIN_DATA
			-172.40		2.4689E-03
			-169.40		2.7001E-03
			-166.40		3.9638E-03
			-163.40		3.9660E-03
			-160.40		4.0057E-03
			-157.40		4.4015E-03
			-154.40		4.1232E-03
			-151.40		4.1516E-03
			-148.40		4.7321E-03
			-145.40		5.3267E-03
			-142.40		5.3570E-03
			-139.40		5.9278E-03
			-136.40		5.7801E-03
			-133.40		6.5293E-03
			-130.40		7.1707E-03
			-127.40		7.6034E-03
			-124.40		7.9432E-03
			-121.40		9.4824E-03
			-118.40		10.074E-03
			-115.40		10.579E-03
			-112.40		11.177E-03
			-109.40		12.452E-03
			-106.40		13.217E-03
			-103.40		13.744E-03
			-100.40		14.919E-03
			-97.40		17.272E-03
			-94.40		19.189E-03
			-91.40		21.159E-03
			-88.40		23.616E-03
			-85.40		26.793E-03
			-82.40		30.522E-03
			-79.40		36.022E-03
			-76.40		44.226E-03
			-73.40		66.673E-03
			-70.40		145.32E-03
			-67.40		339.11E-03
			-64.40		513.58E-03
			-61.40		588.43E-03
			-58.40		616.75E-03
			-55.40		632.19E-03
			-52.40		640.50E-03
			-49.40		646.61E-03
			-46.40		649.33E-03
			-43.40		652.55E-03
			-40.40		655.42E-03
			-37.40		660.48E-03
			-34.40		659.92E-03
			-31.40		661.90E-03
			-28.40		660.69E-03
			-25.40		663.35E-03
			-22.40		663.45E-03
			-19.40		664.11E-03
			-16.40		668.21E-03
			-13.40		670.92E-03
			0.00		667.60E-03
			13.40		672.89E-03
			16.40		668.45E-03
			19.40		667.74E-03
			22.40		666.17E-03
			25.40		665.07E-03
			28.40		664.73E-03
			31.40		661.85E-03
			34.40		659.00E-03
			37.40		661.89E-03
			40.40		659.42E-03
			43.40		656.28E-03
			46.40		654.94E-03
			49.40		649.26E-03
			52.40		643.88E-03
			55.40		633.36E-03
			58.40		620.41E-03
			61.40		592.61E-03
			64.40		514.48E-03
			67.40		367.98E-03
			70.40		186.04E-03
			73.40		81.221E-03
			76.40		49.978E-03
			79.40		38.644E-03
			82.40		31.999E-03
			85.40		28.127E-03
			88.40		25.145E-03
			91.40		22.092E-03
			94.40		20.296E-03
			97.40		18.337E-03
			100.40		16.322E-03
			103.40		15.608E-03
			106.40		14.062E-03
			109.40		13.038E-03
			112.40		11.409E-03
			115.40		10.606E-03
			118.40		9.4740E-03
			121.40		9.0023E-03
			124.40		8.1183E-03
			127.40		8.2021E-03
			130.40		7.7454E-03
			133.40		6.5781E-03
			136.40		5.7272E-03
			139.40		5.5521E-03
			142.40		5.2484E-03
			145.40		5.1071E-03
			148.40		5.2244E-03
			151.40		4.3249E-03
			154.40		4.8739E-03
			157.40		4.2127E-03
			160.40		3.0081E-03
			163.40		3.1857E-03
			166.40		3.6054E-03
			169.40		3.0822E-03
			172.40		3.2996E-03
		END_DATA
	END_SCAN  15
	BEGIN_SCAN  16
		TASK_NAME=MODE_INTERVAL
		PROGRAM=BeamAdjust 1.2
		MEAS_DATE=07-Oct-2010 13:51:33
		LINAC=A4
		MODALITY=X
		INPLANE_AXIS_DIR=GUN_TARGET
		CROSSPLANE_AXIS_DIR=LEFT_RIGHT
		DEPTH_AXIS_DIR=UP_DOWN
		ENERGY=6.00
		SSD=950.00
		WEDGE=None
		FIELD_INPLANE=100.00
		FIELD_CROSSPLANE=100.00
		FIELD_TYPE=RECTANGULAR
		GANTRY=0.00
		GANTRY_UPRIGHT_POSITION=0
		GANTRY_ROTATION=CW
		COLL_ANGLE=90.00
		COLL_OFFSET_INPLANE=0.00
		COLL_OFFSET_CROSSPLANE=0.00
		SCAN_DEVICE=STARCHECK
		ELECTROMETER=2D_ARRAY_INTERFACE
		DETECTOR=STARCHECK
		SCAN_CURVETYPE=INPLANE_PROFILE
		SCAN_DEPTH=0.00
		SCAN_OFFAXIS_CROSSPLANE=0.00
		SCAN_ANGLE=0.00
		SCAN_DIAGONAL=SECOND_DIAGONAL
		MEAS_PRESET=TIME_PRESET
		MEAS_TIME=10.000
		MEAS_UNIT=GY
		PRESSURE=1013.25
		TEMPERATURE=20.00
		NORM_TEMPERATURE=20.00
		CORRECTION_FACTOR=1.0000
		CORRECTIONS=AIR_DENSITY_CORR;
		BEGIN_DATA
			-172.40		3.1819E-03
			-169.40		3.1262E-03
			-166.40		3.2288E-03
			-163.40		3.4605E-03
			-160.40		3.6446E-03
			-157.40		4.1158E-03
			-154.40		4.3592E-03
			-151.40		4.4384E-03
			-148.40		4.9204E-03
			-145.40		5.6616E-03
			-142.40		5.6478E-03
			-139.40		5.9786E-03
			-136.40		6.2639E-03
			-133.40		6.8510E-03
			-130.40		6.9786E-03
			-127.40		7.8994E-03
			-124.40		8.6409E-03
			-121.40		9.1086E-03
			-118.40		10.095E-03
			-115.40		10.665E-03
			-112.40		11.298E-03
			-109.40		12.915E-03
			-106.40		14.331E-03
			-103.40		15.522E-03
			-100.40		16.978E-03
			-97.40		18.553E-03
			-94.40		20.019E-03
			-91.40		22.472E-03
			-88.40		24.902E-03
			-85.40		28.230E-03
			-82.40		33.116E-03
			-79.40		40.924E-03
			-76.40		56.247E-03
			-73.40		105.02E-03
			-70.40		263.81E-03
			-67.40		470.77E-03
			-64.40		576.85E-03
			-61.40		615.85E-03
			-58.40		634.52E-03
			-55.40		642.68E-03
			-52.40		652.04E-03
			-49.40		655.79E-03
			-46.40		658.54E-03
			-43.40		661.19E-03
			-40.40		663.33E-03
			-37.40		666.48E-03
			-34.40		665.71E-03
			-31.40		666.81E-03
			-28.40		668.76E-03
			-25.40		667.70E-03
			-22.40		665.62E-03
			-19.40		669.97E-03
			-16.40		670.96E-03
			-13.40		673.31E-03
			0.00		667.60E-03
			13.40		670.79E-03
			16.40		668.06E-03
			19.40		665.15E-03
			22.40		662.76E-03
			25.40		662.42E-03
			28.40		661.10E-03
			31.40		659.12E-03
			34.40		655.67E-03
			37.40		655.26E-03
			40.40		653.64E-03
			43.40		651.45E-03
			46.40		649.68E-03
			49.40		644.07E-03
			52.40		634.56E-03
			55.40		624.22E-03
			58.40		608.37E-03
			61.40		566.76E-03
			64.40		450.05E-03
			67.40		240.02E-03
			70.40		97.202E-03
			73.40		54.306E-03
			76.40		39.825E-03
			79.40		32.609E-03
			82.40		28.846E-03
			85.40		25.655E-03
			88.40		23.304E-03
			91.40		21.149E-03
			94.40		18.849E-03
			97.40		17.240E-03
			100.40		14.947E-03
			103.40		13.574E-03
			106.40		13.030E-03
			109.40		11.815E-03
			112.40		10.752E-03
			115.40		9.9081E-03
			118.40		9.1682E-03
			121.40		8.3517E-03
			124.40		7.3736E-03
			127.40		7.2742E-03
			130.40		7.6996E-03
			133.40		6.6521E-03
			136.40		6.0645E-03
			139.40		6.2678E-03
			142.40		5.7087E-03
			145.40		5.3818E-03
			148.40		4.6201E-03
			151.40		4.0671E-03
			154.40		4.2466E-03
			157.40		3.8172E-03
			160.40		3.9003E-03
			163.40		4.1453E-03
			166.40		3.6185E-03
			169.40		3.0618E-03
			172.40		3.1070E-03
		END_DATA
	END_SCAN  16
END_SCAN_DATA
