BEGIN_SCAN_DATA
	FORMAT=CC-Export V1.9                  
	FILE_CREATION_DATE=07-Oct-2010 13:51:01
	LAST_MODIFIED=07-Oct-2010 13:51:01
	BEGIN_SCAN  1
		TASK_NAME=MODE_INTERVAL
		PROGRAM=BeamAdjust 1.2
		MEAS_DATE=07-Oct-2010 13:51:01
		LINAC=A4
		MODALITY=X
		INPLANE_AXIS_DIR=TARGET_GUN
		CROSSPLANE_AXIS_DIR=LEFT_RIGHT
		DEPTH_AXIS_DIR=UP_DOWN
		ENERGY=6.00
		SSD=950.00
		WEDGE=None
		FIELD_INPLANE=100.00
		FIELD_CROSSPLANE=100.00
		FIELD_TYPE=RECTANGULAR
		GANTRY=0.00
		GANTRY_UPRIGHT_POSITION=0
		GANTRY_ROTATION=CW
		COLL_ANGLE=90.00
		COLL_OFFSET_INPLANE=0.00
		COLL_OFFSET_CROSSPLANE=0.00
		SCAN_DEVICE=STARCHECK
		ELECTROMETER=2D_ARRAY_INTERFACE
		DETECTOR=STARCHECK
		SCAN_CURVETYPE=CROSSPLANE_PROFILE
		SCAN_DEPTH=0.00
		SCAN_OFFAXIS_INPLANE=-130.00
		SCAN_ANGLE=0.00
		SCAN_DIAGONAL=NOT_DIAGONAL
		MEAS_PRESET=TIME_PRESET
		MEAS_TIME=10.000
		MEAS_UNIT=GY
		PRESSURE=1013.25
		TEMPERATURE=20.00
		NORM_TEMPERATURE=20.00
		CORRECTION_FACTOR=1.0000
		CORRECTIONS=AIR_DENSITY_CORR;
		BEGIN_DATA
			-130.00		2.6782E-03
			-80.00		4.4764E-03
			-40.00		7.2968E-03
			40.00		7.2195E-03
			80.00		4.3319E-03
			130.00		1.9284E-03
		END_DATA
	END_SCAN  1
	BEGIN_SCAN  2
		TASK_NAME=MODE_INTERVAL
		PROGRAM=BeamAdjust 1.2
		MEAS_DATE=07-Oct-2010 13:51:01
		LINAC=A4
		MODALITY=X
		INPLANE_AXIS_DIR=TARGET_GUN
		CROSSPLANE_AXIS_DIR=LEFT_RIGHT
		DEPTH_AXIS_DIR=UP_DOWN
		ENERGY=6.00
		SSD=950.00
		WEDGE=None
		FIELD_INPLANE=100.00
		FIELD_CROSSPLANE=100.00
		FIELD_TYPE=RECTANGULAR
		GANTRY=0.00
		GANTRY_UPRIGHT_POSITION=0
		GANTRY_ROTATION=CW
		COLL_ANGLE=90.00
		COLL_OFFSET_INPLANE=0.00
		COLL_OFFSET_CROSSPLANE=0.00
		SCAN_DEVICE=STARCHECK
		ELECTROMETER=2D_ARRAY_INTERFACE
		DETECTOR=STARCHECK
		SCAN_CURVETYPE=CROSSPLANE_PROFILE
		SCAN_DEPTH=0.00
		SCAN_OFFAXIS_INPLANE=-100.00
		SCAN_ANGLE=0.00
		SCAN_DIAGONAL=NOT_DIAGONAL
		MEAS_PRESET=TIME_PRESET
		MEAS_TIME=10.000
		MEAS_UNIT=GY
		PRESSURE=1013.25
		TEMPERATURE=20.00
		NORM_TEMPERATURE=20.00
		CORRECTION_FACTOR=1.0000
		CORRECTIONS=AIR_DENSITY_CORR;
		BEGIN_DATA
			-60.00		10.204E-03
			-30.00		14.170E-03
			30.00		15.517E-03
			60.00		10.843E-03
		END_DATA
	END_SCAN  2
	BEGIN_SCAN  3
		TASK_NAME=MODE_INTERVAL
		PROGRAM=BeamAdjust 1.2
		MEAS_DATE=07-Oct-2010 13:51:01
		LINAC=A4
		MODALITY=X
		INPLANE_AXIS_DIR=TARGET_GUN
		CROSSPLANE_AXIS_DIR=LEFT_RIGHT
		DEPTH_AXIS_DIR=UP_DOWN
		ENERGY=6.00
		SSD=950.00
		WEDGE=None
		FIELD_INPLANE=100.00
		FIELD_CROSSPLANE=100.00
		FIELD_TYPE=RECTANGULAR
		GANTRY=0.00
		GANTRY_UPRIGHT_POSITION=0
		GANTRY_ROTATION=CW
		COLL_ANGLE=90.00
		COLL_OFFSET_INPLANE=0.00
		COLL_OFFSET_CROSSPLANE=0.00
		SCAN_DEVICE=STARCHECK
		ELECTROMETER=2D_ARRAY_INTERFACE
		DETECTOR=STARCHECK
		SCAN_CURVETYPE=CROSSPLANE_PROFILE
		SCAN_DEPTH=0.00
		SCAN_OFFAXIS_INPLANE=-50.00
		SCAN_ANGLE=0.00
		SCAN_DIAGONAL=NOT_DIAGONAL
		MEAS_PRESET=TIME_PRESET
		MEAS_TIME=10.000
		MEAS_UNIT=GY
		PRESSURE=1013.25
		TEMPERATURE=20.00
		NORM_TEMPERATURE=20.00
		CORRECTION_FACTOR=1.0000
		CORRECTIONS=AIR_DENSITY_CORR;
		BEGIN_DATA
			-30.00		391.01E-03
			-15.00		357.90E-03
			15.00		382.06E-03
			30.00		394.06E-03
		END_DATA
	END_SCAN  3
	BEGIN_SCAN  4
		TASK_NAME=MODE_INTERVAL
		PROGRAM=BeamAdjust 1.2
		MEAS_DATE=07-Oct-2010 13:51:01
		LINAC=A4
		MODALITY=X
		INPLANE_AXIS_DIR=TARGET_GUN
		CROSSPLANE_AXIS_DIR=LEFT_RIGHT
		DEPTH_AXIS_DIR=UP_DOWN
		ENERGY=6.00
		SSD=950.00
		WEDGE=None
		FIELD_INPLANE=100.00
		FIELD_CROSSPLANE=100.00
		FIELD_TYPE=RECTANGULAR
		GANTRY=0.00
		GANTRY_UPRIGHT_POSITION=0
		GANTRY_ROTATION=CW
		COLL_ANGLE=90.00
		COLL_OFFSET_INPLANE=0.00
		COLL_OFFSET_CROSSPLANE=0.00
		SCAN_DEVICE=STARCHECK
		ELECTROMETER=2D_ARRAY_INTERFACE
		DETECTOR=STARCHECK
		SCAN_CURVETYPE=CROSSPLANE_PROFILE
		SCAN_DEPTH=0.00
		SCAN_OFFAXIS_INPLANE=0.00
		SCAN_ANGLE=0.00
		SCAN_DIAGONAL=NOT_DIAGONAL
		MEAS_PRESET=TIME_PRESET
		MEAS_TIME=10.000
		MEAS_UNIT=GY
		PRESSURE=1013.25
		TEMPERATURE=20.00
		NORM_TEMPERATURE=20.00
		CORRECTION_FACTOR=1.0000
		CORRECTIONS=AIR_DENSITY_CORR;
		BEGIN_DATA
			-126.00		6.5036E-03
			-123.00		7.6787E-03
			-120.00		7.4988E-03
			-117.00		8.2694E-03
			-114.00		8.6887E-03
			-111.00		9.3407E-03
			-108.00		10.357E-03
			-105.00		10.510E-03
			-102.00		11.505E-03
			-99.00		12.658E-03
			-96.00		13.689E-03
			-93.00		14.921E-03
			-90.00		15.897E-03
			-87.00		17.342E-03
			-84.00		19.593E-03
			-81.00		21.063E-03
			-78.00		22.955E-03
			-75.00		25.379E-03
			-72.00		27.762E-03
			-69.00		31.618E-03
			-66.00		36.199E-03
			-63.00		40.811E-03
			-60.00		47.836E-03
			-57.00		59.112E-03
			-54.00		80.005E-03
			-51.00		139.50E-03
			-48.00		381.40E-03
			-45.00		582.27E-03
			-42.00		624.92E-03
			-39.00		643.75E-03
			-36.00		652.21E-03
			-33.00		653.89E-03
			-30.00		656.35E-03
			-27.00		659.38E-03
			-24.00		661.99E-03
			-21.00		661.90E-03
			-18.00		667.45E-03
			-15.00		667.67E-03
			-12.00		667.83E-03
			-9.00		670.99E-03
			-6.00		670.19E-03
			0.00		668.06E-03
			6.00		671.53E-03
			9.00		671.43E-03
			12.00		669.25E-03
			15.00		669.09E-03
			18.00		668.40E-03
			21.00		666.13E-03
			24.00		662.51E-03
			27.00		666.79E-03
			30.00		665.58E-03
			33.00		663.93E-03
			36.00		661.60E-03
			39.00		657.21E-03
			42.00		650.01E-03
			45.00		636.41E-03
			48.00		601.44E-03
			51.00		454.01E-03
			54.00		169.04E-03
			57.00		88.539E-03
			60.00		63.289E-03
			63.00		50.779E-03
			66.00		42.266E-03
			69.00		36.467E-03
			72.00		32.762E-03
			75.00		29.166E-03
			78.00		25.950E-03
			81.00		23.668E-03
			84.00		21.288E-03
			87.00		19.155E-03
			90.00		17.849E-03
			93.00		16.813E-03
			96.00		14.199E-03
			99.00		13.459E-03
			102.00		12.360E-03
			105.00		11.602E-03
			108.00		11.043E-03
			111.00		9.5987E-03
			114.00		9.0627E-03
			117.00		8.4383E-03
			120.00		7.6457E-03
			123.00		7.4585E-03
			126.00		7.2677E-03
		END_DATA
	END_SCAN  4
	BEGIN_SCAN  5
		TASK_NAME=MODE_INTERVAL
		PROGRAM=BeamAdjust 1.2
		MEAS_DATE=07-Oct-2010 13:51:01
		LINAC=A4
		MODALITY=X
		INPLANE_AXIS_DIR=TARGET_GUN
		CROSSPLANE_AXIS_DIR=LEFT_RIGHT
		DEPTH_AXIS_DIR=UP_DOWN
		ENERGY=6.00
		SSD=950.00
		WEDGE=None
		FIELD_INPLANE=100.00
		FIELD_CROSSPLANE=100.00
		FIELD_TYPE=RECTANGULAR
		GANTRY=0.00
		GANTRY_UPRIGHT_POSITION=0
		GANTRY_ROTATION=CW
		COLL_ANGLE=90.00
		COLL_OFFSET_INPLANE=0.00
		COLL_OFFSET_CROSSPLANE=0.00
		SCAN_DEVICE=STARCHECK
		ELECTROMETER=2D_ARRAY_INTERFACE
		DETECTOR=STARCHECK
		SCAN_CURVETYPE=CROSSPLANE_PROFILE
		SCAN_DEPTH=0.00
		SCAN_OFFAXIS_INPLANE=50.00
		SCAN_ANGLE=0.00
		SCAN_DIAGONAL=NOT_DIAGONAL
		MEAS_PRESET=TIME_PRESET
		MEAS_TIME=10.000
		MEAS_UNIT=GY
		PRESSURE=1013.25
		TEMPERATURE=20.00
		NORM_TEMPERATURE=20.00
		CORRECTION_FACTOR=1.0000
		CORRECTIONS=AIR_DENSITY_CORR;
		BEGIN_DATA
			-30.00		270.22E-03
			-15.00		288.38E-03
			15.00		259.53E-03
			30.00		263.91E-03
		END_DATA
	END_SCAN  5
	BEGIN_SCAN  6
		TASK_NAME=MODE_INTERVAL
		PROGRAM=BeamAdjust 1.2
		MEAS_DATE=07-Oct-2010 13:51:01
		LINAC=A4
		MODALITY=X
		INPLANE_AXIS_DIR=TARGET_GUN
		CROSSPLANE_AXIS_DIR=LEFT_RIGHT
		DEPTH_AXIS_DIR=UP_DOWN
		ENERGY=6.00
		SSD=950.00
		WEDGE=None
		FIELD_INPLANE=100.00
		FIELD_CROSSPLANE=100.00
		FIELD_TYPE=RECTANGULAR
		GANTRY=0.00
		GANTRY_UPRIGHT_POSITION=0
		GANTRY_ROTATION=CW
		COLL_ANGLE=90.00
		COLL_OFFSET_INPLANE=0.00
		COLL_OFFSET_CROSSPLANE=0.00
		SCAN_DEVICE=STARCHECK
		ELECTROMETER=2D_ARRAY_INTERFACE
		DETECTOR=STARCHECK
		SCAN_CURVETYPE=CROSSPLANE_PROFILE
		SCAN_DEPTH=0.00
		SCAN_OFFAXIS_INPLANE=100.00
		SCAN_ANGLE=0.00
		SCAN_DIAGONAL=NOT_DIAGONAL
		MEAS_PRESET=TIME_PRESET
		MEAS_TIME=10.000
		MEAS_UNIT=GY
		PRESSURE=1013.25
		TEMPERATURE=20.00
		NORM_TEMPERATURE=20.00
		CORRECTION_FACTOR=1.0000
		CORRECTIONS=AIR_DENSITY_CORR;
		BEGIN_DATA
			-60.00		10.346E-03
			-30.00		14.892E-03
			30.00		15.048E-03
			60.00		9.8795E-03
		END_DATA
	END_SCAN  6
	BEGIN_SCAN  7
		TASK_NAME=MODE_INTERVAL
		PROGRAM=BeamAdjust 1.2
		MEAS_DATE=07-Oct-2010 13:51:01
		LINAC=A4
		MODALITY=X
		INPLANE_AXIS_DIR=TARGET_GUN
		CROSSPLANE_AXIS_DIR=LEFT_RIGHT
		DEPTH_AXIS_DIR=UP_DOWN
		ENERGY=6.00
		SSD=950.00
		WEDGE=None
		FIELD_INPLANE=100.00
		FIELD_CROSSPLANE=100.00
		FIELD_TYPE=RECTANGULAR
		GANTRY=0.00
		GANTRY_UPRIGHT_POSITION=0
		GANTRY_ROTATION=CW
		COLL_ANGLE=90.00
		COLL_OFFSET_INPLANE=0.00
		COLL_OFFSET_CROSSPLANE=0.00
		SCAN_DEVICE=STARCHECK
		ELECTROMETER=2D_ARRAY_INTERFACE
		DETECTOR=STARCHECK
		SCAN_CURVETYPE=CROSSPLANE_PROFILE
		SCAN_DEPTH=0.00
		SCAN_OFFAXIS_INPLANE=130.00
		SCAN_ANGLE=0.00
		SCAN_DIAGONAL=NOT_DIAGONAL
		MEAS_PRESET=TIME_PRESET
		MEAS_TIME=10.000
		MEAS_UNIT=GY
		PRESSURE=1013.25
		TEMPERATURE=20.00
		NORM_TEMPERATURE=20.00
		CORRECTION_FACTOR=1.0000
		CORRECTIONS=AIR_DENSITY_CORR;
		BEGIN_DATA
			-130.00		2.1426E-03
			-80.00		4.2906E-03
			-40.00		7.3166E-03
			40.00		7.3510E-03
			80.00		4.5431E-03
			130.00		2.1540E-03
		END_DATA
	END_SCAN  7
	BEGIN_SCAN  8
		TASK_NAME=MODE_INTERVAL
		PROGRAM=BeamAdjust 1.2
		MEAS_DATE=07-Oct-2010 13:51:01
		LINAC=A4
		MODALITY=X
		INPLANE_AXIS_DIR=TARGET_GUN
		CROSSPLANE_AXIS_DIR=LEFT_RIGHT
		DEPTH_AXIS_DIR=UP_DOWN
		ENERGY=6.00
		SSD=950.00
		WEDGE=None
		FIELD_INPLANE=100.00
		FIELD_CROSSPLANE=100.00
		FIELD_TYPE=RECTANGULAR
		GANTRY=0.00
		GANTRY_UPRIGHT_POSITION=0
		GANTRY_ROTATION=CW
		COLL_ANGLE=90.00
		COLL_OFFSET_INPLANE=0.00
		COLL_OFFSET_CROSSPLANE=0.00
		SCAN_DEVICE=STARCHECK
		ELECTROMETER=2D_ARRAY_INTERFACE
		DETECTOR=STARCHECK
		SCAN_CURVETYPE=INPLANE_PROFILE
		SCAN_DEPTH=0.00
		SCAN_OFFAXIS_CROSSPLANE=-130.00
		SCAN_ANGLE=0.00
		SCAN_DIAGONAL=NOT_DIAGONAL
		MEAS_PRESET=TIME_PRESET
		MEAS_TIME=10.000
		MEAS_UNIT=GY
		PRESSURE=1013.25
		TEMPERATURE=20.00
		NORM_TEMPERATURE=20.00
		CORRECTION_FACTOR=1.0000
		CORRECTIONS=AIR_DENSITY_CORR;
		BEGIN_DATA
			-130.00		2.6782E-03
			-125.00		2.7405E-03
			-120.00		3.3350E-03
			-115.00		3.9129E-03
			-110.00		3.5347E-03
			-105.00		3.6023E-03
			-100.00		4.1462E-03
			-95.00		4.5327E-03
			-90.00		4.6111E-03
			-85.00		4.3721E-03
			-80.00		4.7178E-03
			-75.00		4.8289E-03
			-70.00		4.6865E-03
			-65.00		4.8260E-03
			-60.00		5.0895E-03
			-55.00		5.8043E-03
			-50.00		4.1026E-03
			-45.00		4.4280E-03
			-40.00		4.8606E-03
			-35.00		5.5298E-03
			-30.00		5.3683E-03
			-25.00		4.8376E-03
			-20.00		4.9907E-03
			-15.00		5.0738E-03
			-10.00		5.5827E-03
			-5.00		5.9252E-03
			0.00		6.0569E-03
			5.00		6.5991E-03
			10.00		5.7100E-03
			15.00		5.5182E-03
			20.00		6.1668E-03
			25.00		5.0568E-03
			30.00		5.6334E-03
			35.00		5.5732E-03
			40.00		5.0656E-03
			45.00		4.9366E-03
			50.00		4.6888E-03
			55.00		4.6504E-03
			60.00		5.1149E-03
			65.00		4.1866E-03
			70.00		3.6521E-03
			75.00		4.0178E-03
			80.00		3.8092E-03
			85.00		3.8118E-03
			90.00		3.4565E-03
			95.00		3.1665E-03
			100.00		3.2909E-03
			105.00		2.6879E-03
			110.00		2.6932E-03
			115.00		2.5861E-03
			120.00		2.8977E-03
			125.00		2.9631E-03
			130.00		2.1426E-03
		END_DATA
	END_SCAN  8
	BEGIN_SCAN  9
		TASK_NAME=MODE_INTERVAL
		PROGRAM=BeamAdjust 1.2
		MEAS_DATE=07-Oct-2010 13:51:01
		LINAC=A4
		MODALITY=X
		INPLANE_AXIS_DIR=TARGET_GUN
		CROSSPLANE_AXIS_DIR=LEFT_RIGHT
		DEPTH_AXIS_DIR=UP_DOWN
		ENERGY=6.00
		SSD=950.00
		WEDGE=None
		FIELD_INPLANE=100.00
		FIELD_CROSSPLANE=100.00
		FIELD_TYPE=RECTANGULAR
		GANTRY=0.00
		GANTRY_UPRIGHT_POSITION=0
		GANTRY_ROTATION=CW
		COLL_ANGLE=90.00
		COLL_OFFSET_INPLANE=0.00
		COLL_OFFSET_CROSSPLANE=0.00
		SCAN_DEVICE=STARCHECK
		ELECTROMETER=2D_ARRAY_INTERFACE
		DETECTOR=STARCHECK
		SCAN_CURVETYPE=INPLANE_PROFILE
		SCAN_DEPTH=0.00
		SCAN_OFFAXIS_CROSSPLANE=-100.00
		SCAN_ANGLE=0.00
		SCAN_DIAGONAL=NOT_DIAGONAL
		MEAS_PRESET=TIME_PRESET
		MEAS_TIME=10.000
		MEAS_UNIT=GY
		PRESSURE=1013.25
		TEMPERATURE=20.00
		NORM_TEMPERATURE=20.00
		CORRECTION_FACTOR=1.0000
		CORRECTIONS=AIR_DENSITY_CORR;
		BEGIN_DATA
			-60.00		8.4883E-03
			-30.00		10.609E-03
			30.00		10.073E-03
			60.00		7.7697E-03
		END_DATA
	END_SCAN  9
	BEGIN_SCAN  10
		TASK_NAME=MODE_INTERVAL
		PROGRAM=BeamAdjust 1.2
		MEAS_DATE=07-Oct-2010 13:51:01
		LINAC=A4
		MODALITY=X
		INPLANE_AXIS_DIR=TARGET_GUN
		CROSSPLANE_AXIS_DIR=LEFT_RIGHT
		DEPTH_AXIS_DIR=UP_DOWN
		ENERGY=6.00
		SSD=950.00
		WEDGE=None
		FIELD_INPLANE=100.00
		FIELD_CROSSPLANE=100.00
		FIELD_TYPE=RECTANGULAR
		GANTRY=0.00
		GANTRY_UPRIGHT_POSITION=0
		GANTRY_ROTATION=CW
		COLL_ANGLE=90.00
		COLL_OFFSET_INPLANE=0.00
		COLL_OFFSET_CROSSPLANE=0.00
		SCAN_DEVICE=STARCHECK
		ELECTROMETER=2D_ARRAY_INTERFACE
		DETECTOR=STARCHECK
		SCAN_CURVETYPE=INPLANE_PROFILE
		SCAN_DEPTH=0.00
		SCAN_OFFAXIS_CROSSPLANE=-50.00
		SCAN_ANGLE=0.00
		SCAN_DIAGONAL=NOT_DIAGONAL
		MEAS_PRESET=TIME_PRESET
		MEAS_TIME=10.000
		MEAS_UNIT=GY
		PRESSURE=1013.25
		TEMPERATURE=20.00
		NORM_TEMPERATURE=20.00
		CORRECTION_FACTOR=1.0000
		CORRECTIONS=AIR_DENSITY_CORR;
		BEGIN_DATA
			-30.00		217.49E-03
			-15.00		215.27E-03
			15.00		206.59E-03
			30.00		195.77E-03
		END_DATA
	END_SCAN  10
	BEGIN_SCAN  11
		TASK_NAME=MODE_INTERVAL
		PROGRAM=BeamAdjust 1.2
		MEAS_DATE=07-Oct-2010 13:51:01
		LINAC=A4
		MODALITY=X
		INPLANE_AXIS_DIR=TARGET_GUN
		CROSSPLANE_AXIS_DIR=LEFT_RIGHT
		DEPTH_AXIS_DIR=UP_DOWN
		ENERGY=6.00
		SSD=950.00
		WEDGE=None
		FIELD_INPLANE=100.00
		FIELD_CROSSPLANE=100.00
		FIELD_TYPE=RECTANGULAR
		GANTRY=0.00
		GANTRY_UPRIGHT_POSITION=0
		GANTRY_ROTATION=CW
		COLL_ANGLE=90.00
		COLL_OFFSET_INPLANE=0.00
		COLL_OFFSET_CROSSPLANE=0.00
		SCAN_DEVICE=STARCHECK
		ELECTROMETER=2D_ARRAY_INTERFACE
		DETECTOR=STARCHECK
		SCAN_CURVETYPE=INPLANE_PROFILE
		SCAN_DEPTH=0.00
		SCAN_OFFAXIS_CROSSPLANE=0.00
		SCAN_ANGLE=0.00
		SCAN_DIAGONAL=NOT_DIAGONAL
		MEAS_PRESET=TIME_PRESET
		MEAS_TIME=10.000
		MEAS_UNIT=GY
		PRESSURE=1013.25
		TEMPERATURE=20.00
		NORM_TEMPERATURE=20.00
		CORRECTION_FACTOR=1.0000
		CORRECTIONS=AIR_DENSITY_CORR;
		BEGIN_DATA
			-126.00		9.4186E-03
			-123.00		9.7880E-03
			-120.00		10.433E-03
			-117.00		11.305E-03
			-114.00		12.078E-03
			-111.00		12.871E-03
			-108.00		13.861E-03
			-105.00		14.772E-03
			-102.00		15.934E-03
			-99.00		16.813E-03
			-96.00		18.696E-03
			-93.00		20.392E-03
			-90.00		21.731E-03
			-87.00		23.750E-03
			-84.00		25.852E-03
			-81.00		28.818E-03
			-78.00		30.927E-03
			-75.00		33.817E-03
			-72.00		36.870E-03
			-69.00		40.592E-03
			-66.00		46.237E-03
			-63.00		53.051E-03
			-60.00		63.270E-03
			-57.00		83.019E-03
			-54.00		134.24E-03
			-51.00		308.42E-03
			-48.00		558.78E-03
			-45.00		624.68E-03
			-42.00		644.05E-03
			-39.00		653.83E-03
			-36.00		659.16E-03
			-33.00		662.14E-03
			-30.00		665.87E-03
			-27.00		667.12E-03
			-24.00		666.35E-03
			-21.00		665.22E-03
			-18.00		671.80E-03
			-15.00		670.85E-03
			-12.00		672.19E-03
			-9.00		671.91E-03
			-6.00		669.02E-03
			0.00		668.06E-03
			6.00		672.94E-03
			9.00		672.86E-03
			12.00		672.10E-03
			15.00		669.37E-03
			18.00		665.00E-03
			21.00		665.25E-03
			24.00		661.62E-03
			27.00		662.66E-03
			30.00		658.73E-03
			33.00		656.81E-03
			36.00		654.09E-03
			39.00		642.88E-03
			42.00		631.20E-03
			45.00		597.43E-03
			48.00		433.21E-03
			51.00		188.73E-03
			54.00		99.330E-03
			57.00		70.376E-03
			60.00		57.049E-03
			63.00		48.765E-03
			66.00		43.882E-03
			69.00		39.099E-03
			72.00		35.465E-03
			75.00		31.573E-03
			78.00		28.630E-03
			81.00		26.514E-03
			84.00		24.713E-03
			87.00		22.720E-03
			90.00		21.467E-03
			93.00		19.689E-03
			96.00		18.738E-03
			99.00		16.597E-03
			102.00		15.163E-03
			105.00		14.314E-03
			108.00		13.781E-03
			111.00		12.420E-03
			114.00		11.855E-03
			117.00		11.207E-03
			120.00		10.343E-03
			123.00		9.7667E-03
			126.00		8.6933E-03
		END_DATA
	END_SCAN  11
	BEGIN_SCAN  12
		TASK_NAME=MODE_INTERVAL
		PROGRAM=BeamAdjust 1.2
		MEAS_DATE=07-Oct-2010 13:51:01
		LINAC=A4
		MODALITY=X
		INPLANE_AXIS_DIR=TARGET_GUN
		CROSSPLANE_AXIS_DIR=LEFT_RIGHT
		DEPTH_AXIS_DIR=UP_DOWN
		ENERGY=6.00
		SSD=950.00
		WEDGE=None
		FIELD_INPLANE=100.00
		FIELD_CROSSPLANE=100.00
		FIELD_TYPE=RECTANGULAR
		GANTRY=0.00
		GANTRY_UPRIGHT_POSITION=0
		GANTRY_ROTATION=CW
		COLL_ANGLE=90.00
		COLL_OFFSET_INPLANE=0.00
		COLL_OFFSET_CROSSPLANE=0.00
		SCAN_DEVICE=STARCHECK
		ELECTROMETER=2D_ARRAY_INTERFACE
		DETECTOR=STARCHECK
		SCAN_CURVETYPE=INPLANE_PROFILE
		SCAN_DEPTH=0.00
		SCAN_OFFAXIS_CROSSPLANE=50.00
		SCAN_ANGLE=0.00
		SCAN_DIAGONAL=NOT_DIAGONAL
		MEAS_PRESET=TIME_PRESET
		MEAS_TIME=10.000
		MEAS_UNIT=GY
		PRESSURE=1013.25
		TEMPERATURE=20.00
		NORM_TEMPERATURE=20.00
		CORRECTION_FACTOR=1.0000
		CORRECTIONS=AIR_DENSITY_CORR;
		BEGIN_DATA
			-30.00		507.45E-03
			-15.00		515.51E-03
			15.00		520.81E-03
			30.00		521.69E-03
		END_DATA
	END_SCAN  12
	BEGIN_SCAN  13
		TASK_NAME=MODE_INTERVAL
		PROGRAM=BeamAdjust 1.2
		MEAS_DATE=07-Oct-2010 13:51:01
		LINAC=A4
		MODALITY=X
		INPLANE_AXIS_DIR=TARGET_GUN
		CROSSPLANE_AXIS_DIR=LEFT_RIGHT
		DEPTH_AXIS_DIR=UP_DOWN
		ENERGY=6.00
		SSD=950.00
		WEDGE=None
		FIELD_INPLANE=100.00
		FIELD_CROSSPLANE=100.00
		FIELD_TYPE=RECTANGULAR
		GANTRY=0.00
		GANTRY_UPRIGHT_POSITION=0
		GANTRY_ROTATION=CW
		COLL_ANGLE=90.00
		COLL_OFFSET_INPLANE=0.00
		COLL_OFFSET_CROSSPLANE=0.00
		SCAN_DEVICE=STARCHECK
		ELECTROMETER=2D_ARRAY_INTERFACE
		DETECTOR=STARCHECK
		SCAN_CURVETYPE=INPLANE_PROFILE
		SCAN_DEPTH=0.00
		SCAN_OFFAXIS_CROSSPLANE=100.00
		SCAN_ANGLE=0.00
		SCAN_DIAGONAL=NOT_DIAGONAL
		MEAS_PRESET=TIME_PRESET
		MEAS_TIME=10.000
		MEAS_UNIT=GY
		PRESSURE=1013.25
		TEMPERATURE=20.00
		NORM_TEMPERATURE=20.00
		CORRECTION_FACTOR=1.0000
		CORRECTIONS=AIR_DENSITY_CORR;
		BEGIN_DATA
			-60.00		8.6729E-03
			-30.00		11.141E-03
			30.00		11.212E-03
			60.00		7.9118E-03
		END_DATA
	END_SCAN  13
	BEGIN_SCAN  14
		TASK_NAME=MODE_INTERVAL
		PROGRAM=BeamAdjust 1.2
		MEAS_DATE=07-Oct-2010 13:51:01
		LINAC=A4
		MODALITY=X
		INPLANE_AXIS_DIR=TARGET_GUN
		CROSSPLANE_AXIS_DIR=LEFT_RIGHT
		DEPTH_AXIS_DIR=UP_DOWN
		ENERGY=6.00
		SSD=950.00
		WEDGE=None
		FIELD_INPLANE=100.00
		FIELD_CROSSPLANE=100.00
		FIELD_TYPE=RECTANGULAR
		GANTRY=0.00
		GANTRY_UPRIGHT_POSITION=0
		GANTRY_ROTATION=CW
		COLL_ANGLE=90.00
		COLL_OFFSET_INPLANE=0.00
		COLL_OFFSET_CROSSPLANE=0.00
		SCAN_DEVICE=STARCHECK
		ELECTROMETER=2D_ARRAY_INTERFACE
		DETECTOR=STARCHECK
		SCAN_CURVETYPE=INPLANE_PROFILE
		SCAN_DEPTH=0.00
		SCAN_OFFAXIS_CROSSPLANE=130.00
		SCAN_ANGLE=0.00
		SCAN_DIAGONAL=NOT_DIAGONAL
		MEAS_PRESET=TIME_PRESET
		MEAS_TIME=10.000
		MEAS_UNIT=GY
		PRESSURE=1013.25
		TEMPERATURE=20.00
		NORM_TEMPERATURE=20.00
		CORRECTION_FACTOR=1.0000
		CORRECTIONS=AIR_DENSITY_CORR;
		BEGIN_DATA
			-130.00		1.9284E-03
			-125.00		2.8342E-03
			-120.00		2.4787E-03
			-115.00		2.8160E-03
			-110.00		2.8788E-03
			-105.00		3.0588E-03
			-100.00		3.7698E-03
			-95.00		3.0359E-03
			-90.00		2.8628E-03
			-85.00		3.9684E-03
			-80.00		4.3067E-03
			-75.00		4.0769E-03
			-70.00		4.7075E-03
			-65.00		4.4735E-03
			-60.00		5.2263E-03
			-55.00		4.5510E-03
			-50.00		4.4628E-03
			-45.00		5.1503E-03
			-40.00		5.6736E-03
			-35.00		5.6382E-03
			-30.00		5.7106E-03
			-25.00		5.4998E-03
			-20.00		5.9146E-03
			-15.00		5.7163E-03
			-10.00		4.8332E-03
			-5.00		6.4040E-03
			0.00		7.2722E-03
			5.00		6.2270E-03
			10.00		5.8580E-03
			15.00		5.8823E-03
			20.00		6.0838E-03
			25.00		5.8973E-03
			30.00		5.1291E-03
			35.00		5.4685E-03
			40.00		5.9049E-03
			45.00		5.4151E-03
			50.00		5.0817E-03
			55.00		5.3133E-03
			60.00		5.0148E-03
			65.00		4.2784E-03
			70.00		4.7429E-03
			75.00		4.1637E-03
			80.00		4.4158E-03
			85.00		3.6906E-03
			90.00		3.4784E-03
			95.00		3.5612E-03
			100.00		3.6165E-03
			105.00		2.6588E-03
			110.00		2.3944E-03
			115.00		2.6798E-03
			120.00		2.6592E-03
			125.00		2.3538E-03
			130.00		2.1540E-03
		END_DATA
	END_SCAN  14
	BEGIN_SCAN  15
		TASK_NAME=MODE_INTERVAL
		PROGRAM=BeamAdjust 1.2
		MEAS_DATE=07-Oct-2010 13:51:01
		LINAC=A4
		MODALITY=X
		INPLANE_AXIS_DIR=TARGET_GUN
		CROSSPLANE_AXIS_DIR=LEFT_RIGHT
		DEPTH_AXIS_DIR=UP_DOWN
		ENERGY=6.00
		SSD=950.00
		WEDGE=None
		FIELD_INPLANE=100.00
		FIELD_CROSSPLANE=100.00
		FIELD_TYPE=RECTANGULAR
		GANTRY=0.00
		GANTRY_UPRIGHT_POSITION=0
		GANTRY_ROTATION=CW
		COLL_ANGLE=90.00
		COLL_OFFSET_INPLANE=0.00
		COLL_OFFSET_CROSSPLANE=0.00
		SCAN_DEVICE=STARCHECK
		ELECTROMETER=2D_ARRAY_INTERFACE
		DETECTOR=STARCHECK
		SCAN_CURVETYPE=INPLANE_PROFILE
		SCAN_DEPTH=0.00
		SCAN_OFFAXIS_CROSSPLANE=0.00
		SCAN_ANGLE=0.00
		SCAN_DIAGONAL=FIRST_DIAGONAL
		MEAS_PRESET=TIME_PRESET
		MEAS_TIME=10.000
		MEAS_UNIT=GY
		PRESSURE=1013.25
		TEMPERATURE=20.00
		NORM_TEMPERATURE=20.00
		CORRECTION_FACTOR=1.0000
		CORRECTIONS=AIR_DENSITY_CORR;
		BEGIN_DATA
			-172.40		2.9522E-03
			-169.40		3.0985E-03
			-166.40		4.7392E-03
			-163.40		3.8002E-03
			-160.40		3.9445E-03
			-157.40		3.9545E-03
			-154.40		4.0221E-03
			-151.40		3.9095E-03
			-148.40		4.5041E-03
			-145.40		5.0512E-03
			-142.40		5.6359E-03
			-139.40		5.6537E-03
			-136.40		5.8620E-03
			-133.40		6.8145E-03
			-130.40		6.9597E-03
			-127.40		7.0737E-03
			-124.40		8.2590E-03
			-121.40		8.6488E-03
			-118.40		9.5923E-03
			-115.40		10.441E-03
			-112.40		10.602E-03
			-109.40		12.385E-03
			-106.40		13.330E-03
			-103.40		13.810E-03
			-100.40		15.141E-03
			-97.40		17.094E-03
			-94.40		19.008E-03
			-91.40		20.965E-03
			-88.40		23.783E-03
			-85.40		26.363E-03
			-82.40		30.540E-03
			-79.40		34.730E-03
			-76.40		43.023E-03
			-73.40		63.709E-03
			-70.40		134.54E-03
			-67.40		320.22E-03
			-64.40		500.73E-03
			-61.40		585.06E-03
			-58.40		616.62E-03
			-55.40		632.54E-03
			-52.40		641.14E-03
			-49.40		647.32E-03
			-46.40		650.40E-03
			-43.40		653.25E-03
			-40.40		656.40E-03
			-37.40		661.32E-03
			-34.40		661.15E-03
			-31.40		663.01E-03
			-28.40		661.96E-03
			-25.40		664.76E-03
			-22.40		665.25E-03
			-19.40		665.46E-03
			-16.40		669.27E-03
			-13.40		672.18E-03
			0.00		668.06E-03
			13.40		673.42E-03
			16.40		669.05E-03
			19.40		668.35E-03
			22.40		667.27E-03
			25.40		666.16E-03
			28.40		664.96E-03
			31.40		662.94E-03
			34.40		660.10E-03
			37.40		662.57E-03
			40.40		660.02E-03
			43.40		656.85E-03
			46.40		655.14E-03
			49.40		649.54E-03
			52.40		645.13E-03
			55.40		634.88E-03
			58.40		621.88E-03
			61.40		594.43E-03
			64.40		519.33E-03
			67.40		375.56E-03
			70.40		196.15E-03
			73.40		85.358E-03
			76.40		51.211E-03
			79.40		38.910E-03
			82.40		32.418E-03
			85.40		28.292E-03
			88.40		25.304E-03
			91.40		22.271E-03
			94.40		20.128E-03
			97.40		18.134E-03
			100.40		16.670E-03
			103.40		15.678E-03
			106.40		14.561E-03
			109.40		12.694E-03
			112.40		11.101E-03
			115.40		10.851E-03
			118.40		9.7342E-03
			121.40		8.9801E-03
			124.40		8.3527E-03
			127.40		7.9903E-03
			130.40		8.1184E-03
			133.40		6.8743E-03
			136.40		5.8278E-03
			139.40		5.6038E-03
			142.40		5.5588E-03
			145.40		5.1844E-03
			148.40		5.7674E-03
			151.40		4.4872E-03
			154.40		4.5206E-03
			157.40		4.0731E-03
			160.40		2.9725E-03
			163.40		3.1246E-03
			166.40		3.5207E-03
			169.40		3.2370E-03
			172.40		2.8922E-03
		END_DATA
	END_SCAN  15
	BEGIN_SCAN  16
		TASK_NAME=MODE_INTERVAL
		PROGRAM=BeamAdjust 1.2
		MEAS_DATE=07-Oct-2010 13:51:01
		LINAC=A4
		MODALITY=X
		INPLANE_AXIS_DIR=GUN_TARGET
		CROSSPLANE_AXIS_DIR=LEFT_RIGHT
		DEPTH_AXIS_DIR=UP_DOWN
		ENERGY=6.00
		SSD=950.00
		WEDGE=None
		FIELD_INPLANE=100.00
		FIELD_CROSSPLANE=100.00
		FIELD_TYPE=RECTANGULAR
		GANTRY=0.00
		GANTRY_UPRIGHT_POSITION=0
		GANTRY_ROTATION=CW
		COLL_ANGLE=90.00
		COLL_OFFSET_INPLANE=0.00
		COLL_OFFSET_CROSSPLANE=0.00
		SCAN_DEVICE=STARCHECK
		ELECTROMETER=2D_ARRAY_INTERFACE
		DETECTOR=STARCHECK
		SCAN_CURVETYPE=INPLANE_PROFILE
		SCAN_DEPTH=0.00
		SCAN_OFFAXIS_CROSSPLANE=0.00
		SCAN_ANGLE=0.00
		SCAN_DIAGONAL=SECOND_DIAGONAL
		MEAS_PRESET=TIME_PRESET
		MEAS_TIME=10.000
		MEAS_UNIT=GY
		PRESSURE=1013.25
		TEMPERATURE=20.00
		NORM_TEMPERATURE=20.00
		CORRECTION_FACTOR=1.0000
		CORRECTIONS=AIR_DENSITY_CORR;
		BEGIN_DATA
			-172.40		3.1090E-03
			-169.40		3.1974E-03
			-166.40		3.1826E-03
			-163.40		3.0833E-03
			-160.40		3.8943E-03
			-157.40		3.9940E-03
			-154.40		4.3918E-03
			-151.40		4.3850E-03
			-148.40		4.8653E-03
			-145.40		5.3533E-03
			-142.40		5.8829E-03
			-139.40		6.4607E-03
			-136.40		5.6799E-03
			-133.40		7.0892E-03
			-130.40		7.4116E-03
			-127.40		8.2780E-03
			-124.40		8.9823E-03
			-121.40		9.6322E-03
			-118.40		9.9511E-03
			-115.40		10.812E-03
			-112.40		11.344E-03
			-109.40		12.788E-03
			-106.40		14.330E-03
			-103.40		15.425E-03
			-100.40		17.031E-03
			-97.40		19.352E-03
			-94.40		20.392E-03
			-91.40		22.647E-03
			-88.40		25.137E-03
			-85.40		28.602E-03
			-82.40		33.912E-03
			-79.40		41.546E-03
			-76.40		58.029E-03
			-73.40		111.44E-03
			-70.40		278.81E-03
			-67.40		479.54E-03
			-64.40		580.68E-03
			-61.40		617.73E-03
			-58.40		636.59E-03
			-55.40		644.83E-03
			-52.40		653.82E-03
			-49.40		657.59E-03
			-46.40		659.88E-03
			-43.40		662.95E-03
			-40.40		664.93E-03
			-37.40		668.26E-03
			-34.40		667.31E-03
			-31.40		667.90E-03
			-28.40		669.60E-03
			-25.40		668.84E-03
			-22.40		667.07E-03
			-19.40		671.26E-03
			-16.40		672.44E-03
			-13.40		674.72E-03
			0.00		668.06E-03
			13.40		671.37E-03
			16.40		668.75E-03
			19.40		665.59E-03
			22.40		662.96E-03
			25.40		662.86E-03
			28.40		661.45E-03
			31.40		660.07E-03
			34.40		656.59E-03
			37.40		656.02E-03
			40.40		653.88E-03
			43.40		651.88E-03
			46.40		649.48E-03
			49.40		644.67E-03
			52.40		634.77E-03
			55.40		623.88E-03
			58.40		606.88E-03
			61.40		561.97E-03
			64.40		436.10E-03
			67.40		225.25E-03
			70.40		91.800E-03
			73.40		52.454E-03
			76.40		39.468E-03
			79.40		32.352E-03
			82.40		28.874E-03
			85.40		25.328E-03
			88.40		22.808E-03
			91.40		21.121E-03
			94.40		18.802E-03
			97.40		17.138E-03
			100.40		14.757E-03
			103.40		13.700E-03
			106.40		13.035E-03
			109.40		11.505E-03
			112.40		10.868E-03
			115.40		10.022E-03
			118.40		9.5440E-03
			121.40		8.6094E-03
			124.40		7.8462E-03
			127.40		7.2772E-03
			130.40		7.2218E-03
			133.40		7.3208E-03
			136.40		5.8063E-03
			139.40		6.1900E-03
			142.40		5.7221E-03
			145.40		4.9256E-03
			148.40		4.7388E-03
			151.40		4.1225E-03
			154.40		4.2046E-03
			157.40		4.0726E-03
			160.40		3.4744E-03
			163.40		3.9245E-03
			166.40		3.7275E-03
			169.40		3.1296E-03
			172.40		2.4596E-03
		END_DATA
	END_SCAN  16
END_SCAN_DATA
