BEGIN_SCAN_DATA
	FORMAT=CC-Export V1.9                  
	FILE_CREATION_DATE=07-Oct-2010 13:50:11
	LAST_MODIFIED=07-Oct-2010 13:50:11
	BEGIN_SCAN  1
		TASK_NAME=MODE_INTERVAL
		PROGRAM=BeamAdjust 1.2
		MEAS_DATE=07-Oct-2010 13:50:11
		LINAC=A4
		MODALITY=X
		INPLANE_AXIS_DIR=TARGET_GUN
		CROSSPLANE_AXIS_DIR=LEFT_RIGHT
		DEPTH_AXIS_DIR=UP_DOWN
		ENERGY=6.00
		SSD=950.00
		WEDGE=None
		FIELD_INPLANE=100.00
		FIELD_CROSSPLANE=100.00
		FIELD_TYPE=RECTANGULAR
		GANTRY=0.00
		GANTRY_UPRIGHT_POSITION=0
		GANTRY_ROTATION=CW
		COLL_ANGLE=90.00
		COLL_OFFSET_INPLANE=0.00
		COLL_OFFSET_CROSSPLANE=0.00
		SCAN_DEVICE=STARCHECK
		ELECTROMETER=2D_ARRAY_INTERFACE
		DETECTOR=STARCHECK
		SCAN_CURVETYPE=CROSSPLANE_PROFILE
		SCAN_DEPTH=0.00
		SCAN_OFFAXIS_INPLANE=-130.00
		SCAN_ANGLE=0.00
		SCAN_DIAGONAL=NOT_DIAGONAL
		MEAS_PRESET=TIME_PRESET
		MEAS_TIME=10.000
		MEAS_UNIT=GY
		PRESSURE=1013.25
		TEMPERATURE=20.00
		NORM_TEMPERATURE=20.00
		CORRECTION_FACTOR=1.0000
		CORRECTIONS=AIR_DENSITY_CORR;
		BEGIN_DATA
			-130.00		2.7436E-03
			-80.00		4.2150E-03
			-40.00		7.0630E-03
			40.00		7.3438E-03
			80.00		4.0948E-03
			130.00		1.9449E-03
		END_DATA
	END_SCAN  1
	BEGIN_SCAN  2
		TASK_NAME=MODE_INTERVAL
		PROGRAM=BeamAdjust 1.2
		MEAS_DATE=07-Oct-2010 13:50:11
		LINAC=A4
		MODALITY=X
		INPLANE_AXIS_DIR=TARGET_GUN
		CROSSPLANE_AXIS_DIR=LEFT_RIGHT
		DEPTH_AXIS_DIR=UP_DOWN
		ENERGY=6.00
		SSD=950.00
		WEDGE=None
		FIELD_INPLANE=100.00
		FIELD_CROSSPLANE=100.00
		FIELD_TYPE=RECTANGULAR
		GANTRY=0.00
		GANTRY_UPRIGHT_POSITION=0
		GANTRY_ROTATION=CW
		COLL_ANGLE=90.00
		COLL_OFFSET_INPLANE=0.00
		COLL_OFFSET_CROSSPLANE=0.00
		SCAN_DEVICE=STARCHECK
		ELECTROMETER=2D_ARRAY_INTERFACE
		DETECTOR=STARCHECK
		SCAN_CURVETYPE=CROSSPLANE_PROFILE
		SCAN_DEPTH=0.00
		SCAN_OFFAXIS_INPLANE=-100.00
		SCAN_ANGLE=0.00
		SCAN_DIAGONAL=NOT_DIAGONAL
		MEAS_PRESET=TIME_PRESET
		MEAS_TIME=10.000
		MEAS_UNIT=GY
		PRESSURE=1013.25
		TEMPERATURE=20.00
		NORM_TEMPERATURE=20.00
		CORRECTION_FACTOR=1.0000
		CORRECTIONS=AIR_DENSITY_CORR;
		BEGIN_DATA
			-60.00		10.207E-03
			-30.00		14.511E-03
			30.00		15.416E-03
			60.00		10.601E-03
		END_DATA
	END_SCAN  2
	BEGIN_SCAN  3
		TASK_NAME=MODE_INTERVAL
		PROGRAM=BeamAdjust 1.2
		MEAS_DATE=07-Oct-2010 13:50:11
		LINAC=A4
		MODALITY=X
		INPLANE_AXIS_DIR=TARGET_GUN
		CROSSPLANE_AXIS_DIR=LEFT_RIGHT
		DEPTH_AXIS_DIR=UP_DOWN
		ENERGY=6.00
		SSD=950.00
		WEDGE=None
		FIELD_INPLANE=100.00
		FIELD_CROSSPLANE=100.00
		FIELD_TYPE=RECTANGULAR
		GANTRY=0.00
		GANTRY_UPRIGHT_POSITION=0
		GANTRY_ROTATION=CW
		COLL_ANGLE=90.00
		COLL_OFFSET_INPLANE=0.00
		COLL_OFFSET_CROSSPLANE=0.00
		SCAN_DEVICE=STARCHECK
		ELECTROMETER=2D_ARRAY_INTERFACE
		DETECTOR=STARCHECK
		SCAN_CURVETYPE=CROSSPLANE_PROFILE
		SCAN_DEPTH=0.00
		SCAN_OFFAXIS_INPLANE=-50.00
		SCAN_ANGLE=0.00
		SCAN_DIAGONAL=NOT_DIAGONAL
		MEAS_PRESET=TIME_PRESET
		MEAS_TIME=10.000
		MEAS_UNIT=GY
		PRESSURE=1013.25
		TEMPERATURE=20.00
		NORM_TEMPERATURE=20.00
		CORRECTION_FACTOR=1.0000
		CORRECTIONS=AIR_DENSITY_CORR;
		BEGIN_DATA
			-30.00		389.47E-03
			-15.00		359.45E-03
			15.00		382.61E-03
			30.00		393.47E-03
		END_DATA
	END_SCAN  3
	BEGIN_SCAN  4
		TASK_NAME=MODE_INTERVAL
		PROGRAM=BeamAdjust 1.2
		MEAS_DATE=07-Oct-2010 13:50:11
		LINAC=A4
		MODALITY=X
		INPLANE_AXIS_DIR=TARGET_GUN
		CROSSPLANE_AXIS_DIR=LEFT_RIGHT
		DEPTH_AXIS_DIR=UP_DOWN
		ENERGY=6.00
		SSD=950.00
		WEDGE=None
		FIELD_INPLANE=100.00
		FIELD_CROSSPLANE=100.00
		FIELD_TYPE=RECTANGULAR
		GANTRY=0.00
		GANTRY_UPRIGHT_POSITION=0
		GANTRY_ROTATION=CW
		COLL_ANGLE=90.00
		COLL_OFFSET_INPLANE=0.00
		COLL_OFFSET_CROSSPLANE=0.00
		SCAN_DEVICE=STARCHECK
		ELECTROMETER=2D_ARRAY_INTERFACE
		DETECTOR=STARCHECK
		SCAN_CURVETYPE=CROSSPLANE_PROFILE
		SCAN_DEPTH=0.00
		SCAN_OFFAXIS_INPLANE=0.00
		SCAN_ANGLE=0.00
		SCAN_DIAGONAL=NOT_DIAGONAL
		MEAS_PRESET=TIME_PRESET
		MEAS_TIME=10.000
		MEAS_UNIT=GY
		PRESSURE=1013.25
		TEMPERATURE=20.00
		NORM_TEMPERATURE=20.00
		CORRECTION_FACTOR=1.0000
		CORRECTIONS=AIR_DENSITY_CORR;
		BEGIN_DATA
			-126.00		6.5842E-03
			-123.00		7.1471E-03
			-120.00		7.7782E-03
			-117.00		8.6727E-03
			-114.00		8.8604E-03
			-111.00		9.1310E-03
			-108.00		10.345E-03
			-105.00		10.830E-03
			-102.00		11.143E-03
			-99.00		12.519E-03
			-96.00		13.421E-03
			-93.00		14.712E-03
			-90.00		15.610E-03
			-87.00		17.574E-03
			-84.00		19.311E-03
			-81.00		20.552E-03
			-78.00		22.195E-03
			-75.00		25.206E-03
			-72.00		27.706E-03
			-69.00		31.189E-03
			-66.00		35.584E-03
			-63.00		40.016E-03
			-60.00		46.917E-03
			-57.00		57.655E-03
			-54.00		76.885E-03
			-51.00		129.85E-03
			-48.00		349.35E-03
			-45.00		574.08E-03
			-42.00		622.16E-03
			-39.00		642.42E-03
			-36.00		651.23E-03
			-33.00		653.06E-03
			-30.00		655.77E-03
			-27.00		658.89E-03
			-24.00		661.95E-03
			-21.00		661.36E-03
			-18.00		667.10E-03
			-15.00		667.45E-03
			-12.00		667.53E-03
			-9.00		670.81E-03
			-6.00		670.09E-03
			0.00		667.98E-03
			6.00		671.68E-03
			9.00		670.94E-03
			12.00		669.46E-03
			15.00		668.96E-03
			18.00		668.01E-03
			21.00		666.01E-03
			24.00		662.39E-03
			27.00		666.55E-03
			30.00		665.45E-03
			33.00		663.88E-03
			36.00		661.51E-03
			39.00		657.27E-03
			42.00		650.36E-03
			45.00		638.04E-03
			48.00		606.71E-03
			51.00		482.16E-03
			54.00		187.84E-03
			57.00		92.947E-03
			60.00		64.854E-03
			63.00		51.631E-03
			66.00		43.087E-03
			69.00		37.281E-03
			72.00		32.756E-03
			75.00		29.161E-03
			78.00		26.288E-03
			81.00		24.057E-03
			84.00		21.473E-03
			87.00		19.462E-03
			90.00		18.200E-03
			93.00		16.446E-03
			96.00		14.483E-03
			99.00		13.905E-03
			102.00		12.639E-03
			105.00		11.595E-03
			108.00		11.080E-03
			111.00		10.053E-03
			114.00		9.4641E-03
			117.00		8.5447E-03
			120.00		7.7598E-03
			123.00		7.6868E-03
			126.00		7.6569E-03
		END_DATA
	END_SCAN  4
	BEGIN_SCAN  5
		TASK_NAME=MODE_INTERVAL
		PROGRAM=BeamAdjust 1.2
		MEAS_DATE=07-Oct-2010 13:50:11
		LINAC=A4
		MODALITY=X
		INPLANE_AXIS_DIR=TARGET_GUN
		CROSSPLANE_AXIS_DIR=LEFT_RIGHT
		DEPTH_AXIS_DIR=UP_DOWN
		ENERGY=6.00
		SSD=950.00
		WEDGE=None
		FIELD_INPLANE=100.00
		FIELD_CROSSPLANE=100.00
		FIELD_TYPE=RECTANGULAR
		GANTRY=0.00
		GANTRY_UPRIGHT_POSITION=0
		GANTRY_ROTATION=CW
		COLL_ANGLE=90.00
		COLL_OFFSET_INPLANE=0.00
		COLL_OFFSET_CROSSPLANE=0.00
		SCAN_DEVICE=STARCHECK
		ELECTROMETER=2D_ARRAY_INTERFACE
		DETECTOR=STARCHECK
		SCAN_CURVETYPE=CROSSPLANE_PROFILE
		SCAN_DEPTH=0.00
		SCAN_OFFAXIS_INPLANE=50.00
		SCAN_ANGLE=0.00
		SCAN_DIAGONAL=NOT_DIAGONAL
		MEAS_PRESET=TIME_PRESET
		MEAS_TIME=10.000
		MEAS_UNIT=GY
		PRESSURE=1013.25
		TEMPERATURE=20.00
		NORM_TEMPERATURE=20.00
		CORRECTION_FACTOR=1.0000
		CORRECTIONS=AIR_DENSITY_CORR;
		BEGIN_DATA
			-30.00		269.35E-03
			-15.00		288.72E-03
			15.00		261.87E-03
			30.00		263.33E-03
		END_DATA
	END_SCAN  5
	BEGIN_SCAN  6
		TASK_NAME=MODE_INTERVAL
		PROGRAM=BeamAdjust 1.2
		MEAS_DATE=07-Oct-2010 13:50:11
		LINAC=A4
		MODALITY=X
		INPLANE_AXIS_DIR=TARGET_GUN
		CROSSPLANE_AXIS_DIR=LEFT_RIGHT
		DEPTH_AXIS_DIR=UP_DOWN
		ENERGY=6.00
		SSD=950.00
		WEDGE=None
		FIELD_INPLANE=100.00
		FIELD_CROSSPLANE=100.00
		FIELD_TYPE=RECTANGULAR
		GANTRY=0.00
		GANTRY_UPRIGHT_POSITION=0
		GANTRY_ROTATION=CW
		COLL_ANGLE=90.00
		COLL_OFFSET_INPLANE=0.00
		COLL_OFFSET_CROSSPLANE=0.00
		SCAN_DEVICE=STARCHECK
		ELECTROMETER=2D_ARRAY_INTERFACE
		DETECTOR=STARCHECK
		SCAN_CURVETYPE=CROSSPLANE_PROFILE
		SCAN_DEPTH=0.00
		SCAN_OFFAXIS_INPLANE=100.00
		SCAN_ANGLE=0.00
		SCAN_DIAGONAL=NOT_DIAGONAL
		MEAS_PRESET=TIME_PRESET
		MEAS_TIME=10.000
		MEAS_UNIT=GY
		PRESSURE=1013.25
		TEMPERATURE=20.00
		NORM_TEMPERATURE=20.00
		CORRECTION_FACTOR=1.0000
		CORRECTIONS=AIR_DENSITY_CORR;
		BEGIN_DATA
			-60.00		9.6870E-03
			-30.00		14.940E-03
			30.00		15.148E-03
			60.00		10.217E-03
		END_DATA
	END_SCAN  6
	BEGIN_SCAN  7
		TASK_NAME=MODE_INTERVAL
		PROGRAM=BeamAdjust 1.2
		MEAS_DATE=07-Oct-2010 13:50:11
		LINAC=A4
		MODALITY=X
		INPLANE_AXIS_DIR=TARGET_GUN
		CROSSPLANE_AXIS_DIR=LEFT_RIGHT
		DEPTH_AXIS_DIR=UP_DOWN
		ENERGY=6.00
		SSD=950.00
		WEDGE=None
		FIELD_INPLANE=100.00
		FIELD_CROSSPLANE=100.00
		FIELD_TYPE=RECTANGULAR
		GANTRY=0.00
		GANTRY_UPRIGHT_POSITION=0
		GANTRY_ROTATION=CW
		COLL_ANGLE=90.00
		COLL_OFFSET_INPLANE=0.00
		COLL_OFFSET_CROSSPLANE=0.00
		SCAN_DEVICE=STARCHECK
		ELECTROMETER=2D_ARRAY_INTERFACE
		DETECTOR=STARCHECK
		SCAN_CURVETYPE=CROSSPLANE_PROFILE
		SCAN_DEPTH=0.00
		SCAN_OFFAXIS_INPLANE=130.00
		SCAN_ANGLE=0.00
		SCAN_DIAGONAL=NOT_DIAGONAL
		MEAS_PRESET=TIME_PRESET
		MEAS_TIME=10.000
		MEAS_UNIT=GY
		PRESSURE=1013.25
		TEMPERATURE=20.00
		NORM_TEMPERATURE=20.00
		CORRECTION_FACTOR=1.0000
		CORRECTIONS=AIR_DENSITY_CORR;
		BEGIN_DATA
			-130.00		2.1559E-03
			-80.00		4.3724E-03
			-40.00		7.5456E-03
			40.00		7.6549E-03
			80.00		4.3794E-03
			130.00		3.0041E-03
		END_DATA
	END_SCAN  7
	BEGIN_SCAN  8
		TASK_NAME=MODE_INTERVAL
		PROGRAM=BeamAdjust 1.2
		MEAS_DATE=07-Oct-2010 13:50:11
		LINAC=A4
		MODALITY=X
		INPLANE_AXIS_DIR=TARGET_GUN
		CROSSPLANE_AXIS_DIR=LEFT_RIGHT
		DEPTH_AXIS_DIR=UP_DOWN
		ENERGY=6.00
		SSD=950.00
		WEDGE=None
		FIELD_INPLANE=100.00
		FIELD_CROSSPLANE=100.00
		FIELD_TYPE=RECTANGULAR
		GANTRY=0.00
		GANTRY_UPRIGHT_POSITION=0
		GANTRY_ROTATION=CW
		COLL_ANGLE=90.00
		COLL_OFFSET_INPLANE=0.00
		COLL_OFFSET_CROSSPLANE=0.00
		SCAN_DEVICE=STARCHECK
		ELECTROMETER=2D_ARRAY_INTERFACE
		DETECTOR=STARCHECK
		SCAN_CURVETYPE=INPLANE_PROFILE
		SCAN_DEPTH=0.00
		SCAN_OFFAXIS_CROSSPLANE=-130.00
		SCAN_ANGLE=0.00
		SCAN_DIAGONAL=NOT_DIAGONAL
		MEAS_PRESET=TIME_PRESET
		MEAS_TIME=10.000
		MEAS_UNIT=GY
		PRESSURE=1013.25
		TEMPERATURE=20.00
		NORM_TEMPERATURE=20.00
		CORRECTION_FACTOR=1.0000
		CORRECTIONS=AIR_DENSITY_CORR;
		BEGIN_DATA
			-130.00		2.7436E-03
			-125.00		2.7376E-03
			-120.00		3.4239E-03
			-115.00		3.5018E-03
			-110.00		3.1849E-03
			-105.00		3.5368E-03
			-100.00		4.4243E-03
			-95.00		4.4659E-03
			-90.00		5.0937E-03
			-85.00		4.1637E-03
			-80.00		4.4789E-03
			-75.00		4.9055E-03
			-70.00		4.6317E-03
			-65.00		4.7194E-03
			-60.00		5.3693E-03
			-55.00		5.5224E-03
			-50.00		4.2567E-03
			-45.00		4.4845E-03
			-40.00		5.0363E-03
			-35.00		5.4351E-03
			-30.00		4.9469E-03
			-25.00		5.2246E-03
			-20.00		5.8306E-03
			-15.00		5.1092E-03
			-10.00		5.1032E-03
			-5.00		6.2457E-03
			0.00		6.3351E-03
			5.00		6.4677E-03
			10.00		5.7130E-03
			15.00		5.8965E-03
			20.00		6.0548E-03
			25.00		5.2265E-03
			30.00		5.5020E-03
			35.00		5.9234E-03
			40.00		5.0863E-03
			45.00		4.8071E-03
			50.00		5.2601E-03
			55.00		4.6741E-03
			60.00		4.5820E-03
			65.00		3.9942E-03
			70.00		3.9136E-03
			75.00		4.1338E-03
			80.00		3.6221E-03
			85.00		3.5935E-03
			90.00		3.5352E-03
			95.00		3.3206E-03
			100.00		3.0101E-03
			105.00		2.8643E-03
			110.00		2.8050E-03
			115.00		2.7124E-03
			120.00		3.3437E-03
			125.00		2.6362E-03
			130.00		2.1559E-03
		END_DATA
	END_SCAN  8
	BEGIN_SCAN  9
		TASK_NAME=MODE_INTERVAL
		PROGRAM=BeamAdjust 1.2
		MEAS_DATE=07-Oct-2010 13:50:11
		LINAC=A4
		MODALITY=X
		INPLANE_AXIS_DIR=TARGET_GUN
		CROSSPLANE_AXIS_DIR=LEFT_RIGHT
		DEPTH_AXIS_DIR=UP_DOWN
		ENERGY=6.00
		SSD=950.00
		WEDGE=None
		FIELD_INPLANE=100.00
		FIELD_CROSSPLANE=100.00
		FIELD_TYPE=RECTANGULAR
		GANTRY=0.00
		GANTRY_UPRIGHT_POSITION=0
		GANTRY_ROTATION=CW
		COLL_ANGLE=90.00
		COLL_OFFSET_INPLANE=0.00
		COLL_OFFSET_CROSSPLANE=0.00
		SCAN_DEVICE=STARCHECK
		ELECTROMETER=2D_ARRAY_INTERFACE
		DETECTOR=STARCHECK
		SCAN_CURVETYPE=INPLANE_PROFILE
		SCAN_DEPTH=0.00
		SCAN_OFFAXIS_CROSSPLANE=-100.00
		SCAN_ANGLE=0.00
		SCAN_DIAGONAL=NOT_DIAGONAL
		MEAS_PRESET=TIME_PRESET
		MEAS_TIME=10.000
		MEAS_UNIT=GY
		PRESSURE=1013.25
		TEMPERATURE=20.00
		NORM_TEMPERATURE=20.00
		CORRECTION_FACTOR=1.0000
		CORRECTIONS=AIR_DENSITY_CORR;
		BEGIN_DATA
			-60.00		8.1700E-03
			-30.00		10.377E-03
			30.00		9.9221E-03
			60.00		7.6775E-03
		END_DATA
	END_SCAN  9
	BEGIN_SCAN  10
		TASK_NAME=MODE_INTERVAL
		PROGRAM=BeamAdjust 1.2
		MEAS_DATE=07-Oct-2010 13:50:11
		LINAC=A4
		MODALITY=X
		INPLANE_AXIS_DIR=TARGET_GUN
		CROSSPLANE_AXIS_DIR=LEFT_RIGHT
		DEPTH_AXIS_DIR=UP_DOWN
		ENERGY=6.00
		SSD=950.00
		WEDGE=None
		FIELD_INPLANE=100.00
		FIELD_CROSSPLANE=100.00
		FIELD_TYPE=RECTANGULAR
		GANTRY=0.00
		GANTRY_UPRIGHT_POSITION=0
		GANTRY_ROTATION=CW
		COLL_ANGLE=90.00
		COLL_OFFSET_INPLANE=0.00
		COLL_OFFSET_CROSSPLANE=0.00
		SCAN_DEVICE=STARCHECK
		ELECTROMETER=2D_ARRAY_INTERFACE
		DETECTOR=STARCHECK
		SCAN_CURVETYPE=INPLANE_PROFILE
		SCAN_DEPTH=0.00
		SCAN_OFFAXIS_CROSSPLANE=-50.00
		SCAN_ANGLE=0.00
		SCAN_DIAGONAL=NOT_DIAGONAL
		MEAS_PRESET=TIME_PRESET
		MEAS_TIME=10.000
		MEAS_UNIT=GY
		PRESSURE=1013.25
		TEMPERATURE=20.00
		NORM_TEMPERATURE=20.00
		CORRECTION_FACTOR=1.0000
		CORRECTIONS=AIR_DENSITY_CORR;
		BEGIN_DATA
			-30.00		194.17E-03
			-15.00		193.29E-03
			15.00		183.82E-03
			30.00		174.10E-03
		END_DATA
	END_SCAN  10
	BEGIN_SCAN  11
		TASK_NAME=MODE_INTERVAL
		PROGRAM=BeamAdjust 1.2
		MEAS_DATE=07-Oct-2010 13:50:11
		LINAC=A4
		MODALITY=X
		INPLANE_AXIS_DIR=TARGET_GUN
		CROSSPLANE_AXIS_DIR=LEFT_RIGHT
		DEPTH_AXIS_DIR=UP_DOWN
		ENERGY=6.00
		SSD=950.00
		WEDGE=None
		FIELD_INPLANE=100.00
		FIELD_CROSSPLANE=100.00
		FIELD_TYPE=RECTANGULAR
		GANTRY=0.00
		GANTRY_UPRIGHT_POSITION=0
		GANTRY_ROTATION=CW
		COLL_ANGLE=90.00
		COLL_OFFSET_INPLANE=0.00
		COLL_OFFSET_CROSSPLANE=0.00
		SCAN_DEVICE=STARCHECK
		ELECTROMETER=2D_ARRAY_INTERFACE
		DETECTOR=STARCHECK
		SCAN_CURVETYPE=INPLANE_PROFILE
		SCAN_DEPTH=0.00
		SCAN_OFFAXIS_CROSSPLANE=0.00
		SCAN_ANGLE=0.00
		SCAN_DIAGONAL=NOT_DIAGONAL
		MEAS_PRESET=TIME_PRESET
		MEAS_TIME=10.000
		MEAS_UNIT=GY
		PRESSURE=1013.25
		TEMPERATURE=20.00
		NORM_TEMPERATURE=20.00
		CORRECTION_FACTOR=1.0000
		CORRECTIONS=AIR_DENSITY_CORR;
		BEGIN_DATA
			-126.00		9.5309E-03
			-123.00		9.3298E-03
			-120.00		10.573E-03
			-117.00		11.574E-03
			-114.00		11.823E-03
			-111.00		12.545E-03
			-108.00		13.831E-03
			-105.00		14.639E-03
			-102.00		16.234E-03
			-99.00		16.794E-03
			-96.00		18.129E-03
			-93.00		20.489E-03
			-90.00		22.084E-03
			-87.00		23.819E-03
			-84.00		25.945E-03
			-81.00		28.299E-03
			-78.00		30.707E-03
			-75.00		33.501E-03
			-72.00		37.065E-03
			-69.00		40.785E-03
			-66.00		46.543E-03
			-63.00		52.888E-03
			-60.00		63.026E-03
			-57.00		83.300E-03
			-54.00		134.18E-03
			-51.00		308.50E-03
			-48.00		558.14E-03
			-45.00		623.84E-03
			-42.00		643.64E-03
			-39.00		652.60E-03
			-36.00		657.75E-03
			-33.00		661.39E-03
			-30.00		665.18E-03
			-27.00		666.30E-03
			-24.00		665.71E-03
			-21.00		664.74E-03
			-18.00		671.36E-03
			-15.00		670.13E-03
			-12.00		671.39E-03
			-9.00		671.38E-03
			-6.00		668.96E-03
			0.00		667.98E-03
			6.00		673.50E-03
			9.00		672.33E-03
			12.00		671.68E-03
			15.00		669.24E-03
			18.00		665.27E-03
			21.00		664.83E-03
			24.00		661.59E-03
			27.00		663.49E-03
			30.00		658.88E-03
			33.00		657.06E-03
			36.00		654.39E-03
			39.00		643.38E-03
			42.00		631.35E-03
			45.00		597.40E-03
			48.00		433.79E-03
			51.00		188.91E-03
			54.00		99.034E-03
			57.00		70.048E-03
			60.00		56.959E-03
			63.00		49.246E-03
			66.00		43.545E-03
			69.00		39.061E-03
			72.00		35.033E-03
			75.00		31.823E-03
			78.00		28.414E-03
			81.00		26.352E-03
			84.00		24.707E-03
			87.00		22.793E-03
			90.00		21.841E-03
			93.00		19.165E-03
			96.00		18.074E-03
			99.00		16.633E-03
			102.00		15.009E-03
			105.00		14.263E-03
			108.00		13.437E-03
			111.00		12.536E-03
			114.00		11.659E-03
			117.00		11.183E-03
			120.00		10.615E-03
			123.00		9.7368E-03
			126.00		8.9857E-03
		END_DATA
	END_SCAN  11
	BEGIN_SCAN  12
		TASK_NAME=MODE_INTERVAL
		PROGRAM=BeamAdjust 1.2
		MEAS_DATE=07-Oct-2010 13:50:11
		LINAC=A4
		MODALITY=X
		INPLANE_AXIS_DIR=TARGET_GUN
		CROSSPLANE_AXIS_DIR=LEFT_RIGHT
		DEPTH_AXIS_DIR=UP_DOWN
		ENERGY=6.00
		SSD=950.00
		WEDGE=None
		FIELD_INPLANE=100.00
		FIELD_CROSSPLANE=100.00
		FIELD_TYPE=RECTANGULAR
		GANTRY=0.00
		GANTRY_UPRIGHT_POSITION=0
		GANTRY_ROTATION=CW
		COLL_ANGLE=90.00
		COLL_OFFSET_INPLANE=0.00
		COLL_OFFSET_CROSSPLANE=0.00
		SCAN_DEVICE=STARCHECK
		ELECTROMETER=2D_ARRAY_INTERFACE
		DETECTOR=STARCHECK
		SCAN_CURVETYPE=INPLANE_PROFILE
		SCAN_DEPTH=0.00
		SCAN_OFFAXIS_CROSSPLANE=50.00
		SCAN_ANGLE=0.00
		SCAN_DIAGONAL=NOT_DIAGONAL
		MEAS_PRESET=TIME_PRESET
		MEAS_TIME=10.000
		MEAS_UNIT=GY
		PRESSURE=1013.25
		TEMPERATURE=20.00
		NORM_TEMPERATURE=20.00
		CORRECTION_FACTOR=1.0000
		CORRECTIONS=AIR_DENSITY_CORR;
		BEGIN_DATA
			-30.00		529.00E-03
			-15.00		537.46E-03
			15.00		541.55E-03
			30.00		542.24E-03
		END_DATA
	END_SCAN  12
	BEGIN_SCAN  13
		TASK_NAME=MODE_INTERVAL
		PROGRAM=BeamAdjust 1.2
		MEAS_DATE=07-Oct-2010 13:50:11
		LINAC=A4
		MODALITY=X
		INPLANE_AXIS_DIR=TARGET_GUN
		CROSSPLANE_AXIS_DIR=LEFT_RIGHT
		DEPTH_AXIS_DIR=UP_DOWN
		ENERGY=6.00
		SSD=950.00
		WEDGE=None
		FIELD_INPLANE=100.00
		FIELD_CROSSPLANE=100.00
		FIELD_TYPE=RECTANGULAR
		GANTRY=0.00
		GANTRY_UPRIGHT_POSITION=0
		GANTRY_ROTATION=CW
		COLL_ANGLE=90.00
		COLL_OFFSET_INPLANE=0.00
		COLL_OFFSET_CROSSPLANE=0.00
		SCAN_DEVICE=STARCHECK
		ELECTROMETER=2D_ARRAY_INTERFACE
		DETECTOR=STARCHECK
		SCAN_CURVETYPE=INPLANE_PROFILE
		SCAN_DEPTH=0.00
		SCAN_OFFAXIS_CROSSPLANE=100.00
		SCAN_ANGLE=0.00
		SCAN_DIAGONAL=NOT_DIAGONAL
		MEAS_PRESET=TIME_PRESET
		MEAS_TIME=10.000
		MEAS_UNIT=GY
		PRESSURE=1013.25
		TEMPERATURE=20.00
		NORM_TEMPERATURE=20.00
		CORRECTION_FACTOR=1.0000
		CORRECTIONS=AIR_DENSITY_CORR;
		BEGIN_DATA
			-60.00		8.6179E-03
			-30.00		11.316E-03
			30.00		11.254E-03
			60.00		8.0619E-03
		END_DATA
	END_SCAN  13
	BEGIN_SCAN  14
		TASK_NAME=MODE_INTERVAL
		PROGRAM=BeamAdjust 1.2
		MEAS_DATE=07-Oct-2010 13:50:11
		LINAC=A4
		MODALITY=X
		INPLANE_AXIS_DIR=TARGET_GUN
		CROSSPLANE_AXIS_DIR=LEFT_RIGHT
		DEPTH_AXIS_DIR=UP_DOWN
		ENERGY=6.00
		SSD=950.00
		WEDGE=None
		FIELD_INPLANE=100.00
		FIELD_CROSSPLANE=100.00
		FIELD_TYPE=RECTANGULAR
		GANTRY=0.00
		GANTRY_UPRIGHT_POSITION=0
		GANTRY_ROTATION=CW
		COLL_ANGLE=90.00
		COLL_OFFSET_INPLANE=0.00
		COLL_OFFSET_CROSSPLANE=0.00
		SCAN_DEVICE=STARCHECK
		ELECTROMETER=2D_ARRAY_INTERFACE
		DETECTOR=STARCHECK
		SCAN_CURVETYPE=INPLANE_PROFILE
		SCAN_DEPTH=0.00
		SCAN_OFFAXIS_CROSSPLANE=130.00
		SCAN_ANGLE=0.00
		SCAN_DIAGONAL=NOT_DIAGONAL
		MEAS_PRESET=TIME_PRESET
		MEAS_TIME=10.000
		MEAS_UNIT=GY
		PRESSURE=1013.25
		TEMPERATURE=20.00
		NORM_TEMPERATURE=20.00
		CORRECTION_FACTOR=1.0000
		CORRECTIONS=AIR_DENSITY_CORR;
		BEGIN_DATA
			-130.00		1.9449E-03
			-125.00		2.8327E-03
			-120.00		2.4964E-03
			-115.00		2.7923E-03
			-110.00		3.0710E-03
			-105.00		3.2509E-03
			-100.00		3.2586E-03
			-95.00		2.9824E-03
			-90.00		3.0123E-03
			-85.00		4.4711E-03
			-80.00		4.0913E-03
			-75.00		4.3843E-03
			-70.00		4.1784E-03
			-65.00		4.4572E-03
			-60.00		5.3309E-03
			-55.00		4.7251E-03
			-50.00		4.8822E-03
			-45.00		5.1754E-03
			-40.00		5.5732E-03
			-35.00		5.8527E-03
			-30.00		5.9601E-03
			-25.00		5.6379E-03
			-20.00		5.3191E-03
			-15.00		5.6558E-03
			-10.00		5.6641E-03
			-5.00		6.4643E-03
			0.00		6.7166E-03
			5.00		5.7694E-03
			10.00		6.2517E-03
			15.00		5.7011E-03
			20.00		6.1104E-03
			25.00		5.7564E-03
			30.00		4.9078E-03
			35.00		5.4892E-03
			40.00		5.6342E-03
			45.00		5.4978E-03
			50.00		5.2881E-03
			55.00		5.1423E-03
			60.00		5.2523E-03
			65.00		4.3975E-03
			70.00		4.5058E-03
			75.00		4.4709E-03
			80.00		4.3349E-03
			85.00		3.8903E-03
			90.00		3.5756E-03
			95.00		3.7912E-03
			100.00		3.4888E-03
			105.00		2.8883E-03
			110.00		2.6029E-03
			115.00		2.8360E-03
			120.00		3.0619E-03
			125.00		2.3332E-03
			130.00		3.0041E-03
		END_DATA
	END_SCAN  14
	BEGIN_SCAN  15
		TASK_NAME=MODE_INTERVAL
		PROGRAM=BeamAdjust 1.2
		MEAS_DATE=07-Oct-2010 13:50:11
		LINAC=A4
		MODALITY=X
		INPLANE_AXIS_DIR=TARGET_GUN
		CROSSPLANE_AXIS_DIR=LEFT_RIGHT
		DEPTH_AXIS_DIR=UP_DOWN
		ENERGY=6.00
		SSD=950.00
		WEDGE=None
		FIELD_INPLANE=100.00
		FIELD_CROSSPLANE=100.00
		FIELD_TYPE=RECTANGULAR
		GANTRY=0.00
		GANTRY_UPRIGHT_POSITION=0
		GANTRY_ROTATION=CW
		COLL_ANGLE=90.00
		COLL_OFFSET_INPLANE=0.00
		COLL_OFFSET_CROSSPLANE=0.00
		SCAN_DEVICE=STARCHECK
		ELECTROMETER=2D_ARRAY_INTERFACE
		DETECTOR=STARCHECK
		SCAN_CURVETYPE=INPLANE_PROFILE
		SCAN_DEPTH=0.00
		SCAN_OFFAXIS_CROSSPLANE=0.00
		SCAN_ANGLE=0.00
		SCAN_DIAGONAL=FIRST_DIAGONAL
		MEAS_PRESET=TIME_PRESET
		MEAS_TIME=10.000
		MEAS_UNIT=GY
		PRESSURE=1013.25
		TEMPERATURE=20.00
		NORM_TEMPERATURE=20.00
		CORRECTION_FACTOR=1.0000
		CORRECTIONS=AIR_DENSITY_CORR;
		BEGIN_DATA
			-172.40		2.7685E-03
			-169.40		2.9353E-03
			-166.40		3.8171E-03
			-163.40		3.5329E-03
			-160.40		3.7506E-03
			-157.40		3.6699E-03
			-154.40		4.1321E-03
			-151.40		3.9927E-03
			-148.40		4.4281E-03
			-145.40		5.4086E-03
			-142.40		5.5232E-03
			-139.40		6.0603E-03
			-136.40		6.2284E-03
			-133.40		6.9526E-03
			-130.40		8.0149E-03
			-127.40		7.6286E-03
			-124.40		8.1404E-03
			-121.40		8.9109E-03
			-118.40		10.015E-03
			-115.40		10.545E-03
			-112.40		11.165E-03
			-109.40		12.388E-03
			-106.40		12.905E-03
			-103.40		13.844E-03
			-100.40		14.895E-03
			-97.40		17.008E-03
			-94.40		18.736E-03
			-91.40		20.478E-03
			-88.40		23.987E-03
			-85.40		25.727E-03
			-82.40		29.540E-03
			-79.40		34.255E-03
			-76.40		41.854E-03
			-73.40		60.724E-03
			-70.40		123.88E-03
			-67.40		300.56E-03
			-64.40		485.10E-03
			-61.40		578.66E-03
			-58.40		613.86E-03
			-55.40		630.88E-03
			-52.40		640.01E-03
			-49.40		646.45E-03
			-46.40		650.03E-03
			-43.40		652.26E-03
			-40.40		655.52E-03
			-37.40		660.72E-03
			-34.40		660.57E-03
			-31.40		662.44E-03
			-28.40		661.15E-03
			-25.40		664.34E-03
			-22.40		664.65E-03
			-19.40		664.52E-03
			-16.40		668.17E-03
			-13.40		671.55E-03
			0.00		667.98E-03
			13.40		673.62E-03
			16.40		668.76E-03
			19.40		668.92E-03
			22.40		667.11E-03
			25.40		666.13E-03
			28.40		665.32E-03
			31.40		663.12E-03
			34.40		660.37E-03
			37.40		662.85E-03
			40.40		660.14E-03
			43.40		657.55E-03
			46.40		655.79E-03
			49.40		650.08E-03
			52.40		645.56E-03
			55.40		634.96E-03
			58.40		622.60E-03
			61.40		596.10E-03
			64.40		520.96E-03
			67.40		380.14E-03
			70.40		204.14E-03
			73.40		89.015E-03
			76.40		52.539E-03
			79.40		39.831E-03
			82.40		32.890E-03
			85.40		28.475E-03
			88.40		25.464E-03
			91.40		22.202E-03
			94.40		20.525E-03
			97.40		18.347E-03
			100.40		16.633E-03
			103.40		16.183E-03
			106.40		13.982E-03
			109.40		12.968E-03
			112.40		11.265E-03
			115.40		10.755E-03
			118.40		9.8081E-03
			121.40		9.1256E-03
			124.40		8.5145E-03
			127.40		8.0628E-03
			130.40		7.6521E-03
			133.40		6.8017E-03
			136.40		5.7183E-03
			139.40		5.5551E-03
			142.40		5.4095E-03
			145.40		5.3553E-03
			148.40		5.1046E-03
			151.40		4.4723E-03
			154.40		4.5832E-03
			157.40		4.0449E-03
			160.40		3.2247E-03
			163.40		3.4298E-03
			166.40		3.5534E-03
			169.40		3.2847E-03
			172.40		3.3369E-03
		END_DATA
	END_SCAN  15
	BEGIN_SCAN  16
		TASK_NAME=MODE_INTERVAL
		PROGRAM=BeamAdjust 1.2
		MEAS_DATE=07-Oct-2010 13:50:11
		LINAC=A4
		MODALITY=X
		INPLANE_AXIS_DIR=GUN_TARGET
		CROSSPLANE_AXIS_DIR=LEFT_RIGHT
		DEPTH_AXIS_DIR=UP_DOWN
		ENERGY=6.00
		SSD=950.00
		WEDGE=None
		FIELD_INPLANE=100.00
		FIELD_CROSSPLANE=100.00
		FIELD_TYPE=RECTANGULAR
		GANTRY=0.00
		GANTRY_UPRIGHT_POSITION=0
		GANTRY_ROTATION=CW
		COLL_ANGLE=90.00
		COLL_OFFSET_INPLANE=0.00
		COLL_OFFSET_CROSSPLANE=0.00
		SCAN_DEVICE=STARCHECK
		ELECTROMETER=2D_ARRAY_INTERFACE
		DETECTOR=STARCHECK
		SCAN_CURVETYPE=INPLANE_PROFILE
		SCAN_DEPTH=0.00
		SCAN_OFFAXIS_CROSSPLANE=0.00
		SCAN_ANGLE=0.00
		SCAN_DIAGONAL=SECOND_DIAGONAL
		MEAS_PRESET=TIME_PRESET
		MEAS_TIME=10.000
		MEAS_UNIT=GY
		PRESSURE=1013.25
		TEMPERATURE=20.00
		NORM_TEMPERATURE=20.00
		CORRECTION_FACTOR=1.0000
		CORRECTIONS=AIR_DENSITY_CORR;
		BEGIN_DATA
			-172.40		2.7893E-03
			-169.40		3.4228E-03
			-166.40		3.3867E-03
			-163.40		3.4932E-03
			-160.40		3.8334E-03
			-157.40		4.1990E-03
			-154.40		4.3444E-03
			-151.40		4.6801E-03
			-148.40		5.0988E-03
			-145.40		5.5030E-03
			-142.40		5.9494E-03
			-139.40		5.8762E-03
			-136.40		6.2920E-03
			-133.40		7.3171E-03
			-130.40		7.5151E-03
			-127.40		8.0118E-03
			-124.40		8.8611E-03
			-121.40		9.4775E-03
			-118.40		10.166E-03
			-115.40		10.542E-03
			-112.40		11.324E-03
			-109.40		12.835E-03
			-106.40		14.011E-03
			-103.40		15.307E-03
			-100.40		16.997E-03
			-97.40		18.661E-03
			-94.40		20.790E-03
			-91.40		22.972E-03
			-88.40		25.407E-03
			-85.40		29.006E-03
			-82.40		34.207E-03
			-79.40		42.289E-03
			-76.40		59.939E-03
			-73.40		119.15E-03
			-70.40		292.49E-03
			-67.40		486.21E-03
			-64.40		582.54E-03
			-61.40		618.59E-03
			-58.40		636.73E-03
			-55.40		644.02E-03
			-52.40		654.09E-03
			-49.40		657.10E-03
			-46.40		659.81E-03
			-43.40		662.25E-03
			-40.40		664.61E-03
			-37.40		667.55E-03
			-34.40		666.96E-03
			-31.40		667.61E-03
			-28.40		669.70E-03
			-25.40		668.32E-03
			-22.40		666.68E-03
			-19.40		670.45E-03
			-16.40		672.50E-03
			-13.40		674.34E-03
			0.00		667.98E-03
			13.40		672.14E-03
			16.40		668.31E-03
			19.40		665.56E-03
			22.40		663.35E-03
			25.40		663.08E-03
			28.40		661.80E-03
			31.40		659.69E-03
			34.40		656.94E-03
			37.40		655.98E-03
			40.40		654.17E-03
			43.40		651.73E-03
			46.40		649.25E-03
			49.40		644.00E-03
			52.40		634.12E-03
			55.40		623.33E-03
			58.40		604.74E-03
			61.40		555.20E-03
			64.40		420.17E-03
			67.40		209.66E-03
			70.40		86.466E-03
			73.40		51.295E-03
			76.40		38.693E-03
			79.40		31.930E-03
			82.40		28.470E-03
			85.40		25.253E-03
			88.40		22.681E-03
			91.40		20.598E-03
			94.40		18.627E-03
			97.40		17.587E-03
			100.40		14.856E-03
			103.40		13.472E-03
			106.40		12.915E-03
			109.40		11.724E-03
			112.40		10.620E-03
			115.40		9.9486E-03
			118.40		8.9047E-03
			121.40		8.3815E-03
			124.40		7.6877E-03
			127.40		7.1306E-03
			130.40		7.2024E-03
			133.40		6.4775E-03
			136.40		5.7809E-03
			139.40		6.6268E-03
			142.40		5.5503E-03
			145.40		5.4343E-03
			148.40		4.6622E-03
			151.40		4.2575E-03
			154.40		4.3638E-03
			157.40		4.1312E-03
			160.40		3.6354E-03
			163.40		3.8794E-03
			166.40		3.8969E-03
			169.40		2.9323E-03
			172.40		2.5818E-03
		END_DATA
	END_SCAN  16
END_SCAN_DATA
