BEGIN_SCAN_DATA
	FORMAT=CC-Export V1.9                  
	FILE_CREATION_DATE=07-Oct-2010 13:49:38
	LAST_MODIFIED=07-Oct-2010 13:49:38
	BEGIN_SCAN  1
		TASK_NAME=MODE_INTERVAL
		PROGRAM=BeamAdjust 1.2
		MEAS_DATE=07-Oct-2010 13:49:38
		LINAC=A4
		MODALITY=X
		INPLANE_AXIS_DIR=TARGET_GUN
		CROSSPLANE_AXIS_DIR=LEFT_RIGHT
		DEPTH_AXIS_DIR=UP_DOWN
		ENERGY=6.00
		SSD=950.00
		WEDGE=None
		FIELD_INPLANE=100.00
		FIELD_CROSSPLANE=100.00
		FIELD_TYPE=RECTANGULAR
		GANTRY=0.00
		GANTRY_UPRIGHT_POSITION=0
		GANTRY_ROTATION=CW
		COLL_ANGLE=90.00
		COLL_OFFSET_INPLANE=0.00
		COLL_OFFSET_CROSSPLANE=0.00
		SCAN_DEVICE=STARCHECK
		ELECTROMETER=2D_ARRAY_INTERFACE
		DETECTOR=STARCHECK
		SCAN_CURVETYPE=CROSSPLANE_PROFILE
		SCAN_DEPTH=0.00
		SCAN_OFFAXIS_INPLANE=-130.00
		SCAN_ANGLE=0.00
		SCAN_DIAGONAL=NOT_DIAGONAL
		MEAS_PRESET=TIME_PRESET
		MEAS_TIME=10.000
		MEAS_UNIT=GY
		PRESSURE=1013.25
		TEMPERATURE=20.00
		NORM_TEMPERATURE=20.00
		CORRECTION_FACTOR=1.0000
		CORRECTIONS=AIR_DENSITY_CORR;
		BEGIN_DATA
			-130.00		2.4465E-03
			-80.00		4.2822E-03
			-40.00		7.1154E-03
			40.00		7.1986E-03
			80.00		4.0874E-03
			130.00		1.9958E-03
		END_DATA
	END_SCAN  1
	BEGIN_SCAN  2
		TASK_NAME=MODE_INTERVAL
		PROGRAM=BeamAdjust 1.2
		MEAS_DATE=07-Oct-2010 13:49:38
		LINAC=A4
		MODALITY=X
		INPLANE_AXIS_DIR=TARGET_GUN
		CROSSPLANE_AXIS_DIR=LEFT_RIGHT
		DEPTH_AXIS_DIR=UP_DOWN
		ENERGY=6.00
		SSD=950.00
		WEDGE=None
		FIELD_INPLANE=100.00
		FIELD_CROSSPLANE=100.00
		FIELD_TYPE=RECTANGULAR
		GANTRY=0.00
		GANTRY_UPRIGHT_POSITION=0
		GANTRY_ROTATION=CW
		COLL_ANGLE=90.00
		COLL_OFFSET_INPLANE=0.00
		COLL_OFFSET_CROSSPLANE=0.00
		SCAN_DEVICE=STARCHECK
		ELECTROMETER=2D_ARRAY_INTERFACE
		DETECTOR=STARCHECK
		SCAN_CURVETYPE=CROSSPLANE_PROFILE
		SCAN_DEPTH=0.00
		SCAN_OFFAXIS_INPLANE=-100.00
		SCAN_ANGLE=0.00
		SCAN_DIAGONAL=NOT_DIAGONAL
		MEAS_PRESET=TIME_PRESET
		MEAS_TIME=10.000
		MEAS_UNIT=GY
		PRESSURE=1013.25
		TEMPERATURE=20.00
		NORM_TEMPERATURE=20.00
		CORRECTION_FACTOR=1.0000
		CORRECTIONS=AIR_DENSITY_CORR;
		BEGIN_DATA
			-60.00		10.327E-03
			-30.00		14.295E-03
			30.00		15.063E-03
			60.00		11.050E-03
		END_DATA
	END_SCAN  2
	BEGIN_SCAN  3
		TASK_NAME=MODE_INTERVAL
		PROGRAM=BeamAdjust 1.2
		MEAS_DATE=07-Oct-2010 13:49:38
		LINAC=A4
		MODALITY=X
		INPLANE_AXIS_DIR=TARGET_GUN
		CROSSPLANE_AXIS_DIR=LEFT_RIGHT
		DEPTH_AXIS_DIR=UP_DOWN
		ENERGY=6.00
		SSD=950.00
		WEDGE=None
		FIELD_INPLANE=100.00
		FIELD_CROSSPLANE=100.00
		FIELD_TYPE=RECTANGULAR
		GANTRY=0.00
		GANTRY_UPRIGHT_POSITION=0
		GANTRY_ROTATION=CW
		COLL_ANGLE=90.00
		COLL_OFFSET_INPLANE=0.00
		COLL_OFFSET_CROSSPLANE=0.00
		SCAN_DEVICE=STARCHECK
		ELECTROMETER=2D_ARRAY_INTERFACE
		DETECTOR=STARCHECK
		SCAN_CURVETYPE=CROSSPLANE_PROFILE
		SCAN_DEPTH=0.00
		SCAN_OFFAXIS_INPLANE=-50.00
		SCAN_ANGLE=0.00
		SCAN_DIAGONAL=NOT_DIAGONAL
		MEAS_PRESET=TIME_PRESET
		MEAS_TIME=10.000
		MEAS_UNIT=GY
		PRESSURE=1013.25
		TEMPERATURE=20.00
		NORM_TEMPERATURE=20.00
		CORRECTION_FACTOR=1.0000
		CORRECTIONS=AIR_DENSITY_CORR;
		BEGIN_DATA
			-30.00		391.47E-03
			-15.00		363.50E-03
			15.00		386.61E-03
			30.00		395.39E-03
		END_DATA
	END_SCAN  3
	BEGIN_SCAN  4
		TASK_NAME=MODE_INTERVAL
		PROGRAM=BeamAdjust 1.2
		MEAS_DATE=07-Oct-2010 13:49:38
		LINAC=A4
		MODALITY=X
		INPLANE_AXIS_DIR=TARGET_GUN
		CROSSPLANE_AXIS_DIR=LEFT_RIGHT
		DEPTH_AXIS_DIR=UP_DOWN
		ENERGY=6.00
		SSD=950.00
		WEDGE=None
		FIELD_INPLANE=100.00
		FIELD_CROSSPLANE=100.00
		FIELD_TYPE=RECTANGULAR
		GANTRY=0.00
		GANTRY_UPRIGHT_POSITION=0
		GANTRY_ROTATION=CW
		COLL_ANGLE=90.00
		COLL_OFFSET_INPLANE=0.00
		COLL_OFFSET_CROSSPLANE=0.00
		SCAN_DEVICE=STARCHECK
		ELECTROMETER=2D_ARRAY_INTERFACE
		DETECTOR=STARCHECK
		SCAN_CURVETYPE=CROSSPLANE_PROFILE
		SCAN_DEPTH=0.00
		SCAN_OFFAXIS_INPLANE=0.00
		SCAN_ANGLE=0.00
		SCAN_DIAGONAL=NOT_DIAGONAL
		MEAS_PRESET=TIME_PRESET
		MEAS_TIME=10.000
		MEAS_UNIT=GY
		PRESSURE=1013.25
		TEMPERATURE=20.00
		NORM_TEMPERATURE=20.00
		CORRECTION_FACTOR=1.0000
		CORRECTIONS=AIR_DENSITY_CORR;
		BEGIN_DATA
			-126.00		6.4558E-03
			-123.00		7.5921E-03
			-120.00		7.7723E-03
			-117.00		8.3317E-03
			-114.00		8.7746E-03
			-111.00		9.1340E-03
			-108.00		10.087E-03
			-105.00		10.615E-03
			-102.00		11.085E-03
			-99.00		12.285E-03
			-96.00		12.976E-03
			-93.00		14.516E-03
			-90.00		15.965E-03
			-87.00		17.174E-03
			-84.00		19.035E-03
			-81.00		20.279E-03
			-78.00		22.240E-03
			-75.00		24.397E-03
			-72.00		27.195E-03
			-69.00		30.690E-03
			-66.00		35.044E-03
			-63.00		39.392E-03
			-60.00		46.098E-03
			-57.00		56.279E-03
			-54.00		73.935E-03
			-51.00		121.57E-03
			-48.00		316.21E-03
			-45.00		560.74E-03
			-42.00		616.66E-03
			-39.00		638.32E-03
			-36.00		647.63E-03
			-33.00		650.08E-03
			-30.00		652.72E-03
			-27.00		655.85E-03
			-24.00		658.91E-03
			-21.00		658.41E-03
			-18.00		664.10E-03
			-15.00		664.22E-03
			-12.00		664.32E-03
			-9.00		668.29E-03
			-6.00		667.57E-03
			0.00		665.37E-03
			6.00		668.48E-03
			9.00		667.97E-03
			12.00		666.14E-03
			15.00		666.05E-03
			18.00		665.43E-03
			21.00		663.31E-03
			24.00		659.86E-03
			27.00		663.96E-03
			30.00		662.87E-03
			33.00		661.53E-03
			36.00		658.93E-03
			39.00		655.15E-03
			42.00		649.19E-03
			45.00		637.02E-03
			48.00		609.04E-03
			51.00		506.03E-03
			54.00		210.55E-03
			57.00		97.478E-03
			60.00		66.507E-03
			63.00		52.565E-03
			66.00		43.195E-03
			69.00		37.558E-03
			72.00		33.211E-03
			75.00		29.419E-03
			78.00		26.443E-03
			81.00		23.857E-03
			84.00		22.055E-03
			87.00		19.410E-03
			90.00		18.333E-03
			93.00		16.324E-03
			96.00		14.842E-03
			99.00		13.807E-03
			102.00		12.689E-03
			105.00		11.729E-03
			108.00		11.166E-03
			111.00		9.8416E-03
			114.00		9.4080E-03
			117.00		8.7236E-03
			120.00		7.9822E-03
			123.00		7.6557E-03
			126.00		8.2296E-03
		END_DATA
	END_SCAN  4
	BEGIN_SCAN  5
		TASK_NAME=MODE_INTERVAL
		PROGRAM=BeamAdjust 1.2
		MEAS_DATE=07-Oct-2010 13:49:38
		LINAC=A4
		MODALITY=X
		INPLANE_AXIS_DIR=TARGET_GUN
		CROSSPLANE_AXIS_DIR=LEFT_RIGHT
		DEPTH_AXIS_DIR=UP_DOWN
		ENERGY=6.00
		SSD=950.00
		WEDGE=None
		FIELD_INPLANE=100.00
		FIELD_CROSSPLANE=100.00
		FIELD_TYPE=RECTANGULAR
		GANTRY=0.00
		GANTRY_UPRIGHT_POSITION=0
		GANTRY_ROTATION=CW
		COLL_ANGLE=90.00
		COLL_OFFSET_INPLANE=0.00
		COLL_OFFSET_CROSSPLANE=0.00
		SCAN_DEVICE=STARCHECK
		ELECTROMETER=2D_ARRAY_INTERFACE
		DETECTOR=STARCHECK
		SCAN_CURVETYPE=CROSSPLANE_PROFILE
		SCAN_DEPTH=0.00
		SCAN_OFFAXIS_INPLANE=50.00
		SCAN_ANGLE=0.00
		SCAN_DIAGONAL=NOT_DIAGONAL
		MEAS_PRESET=TIME_PRESET
		MEAS_TIME=10.000
		MEAS_UNIT=GY
		PRESSURE=1013.25
		TEMPERATURE=20.00
		NORM_TEMPERATURE=20.00
		CORRECTION_FACTOR=1.0000
		CORRECTIONS=AIR_DENSITY_CORR;
		BEGIN_DATA
			-30.00		263.93E-03
			-15.00		284.52E-03
			15.00		257.23E-03
			30.00		258.01E-03
		END_DATA
	END_SCAN  5
	BEGIN_SCAN  6
		TASK_NAME=MODE_INTERVAL
		PROGRAM=BeamAdjust 1.2
		MEAS_DATE=07-Oct-2010 13:49:38
		LINAC=A4
		MODALITY=X
		INPLANE_AXIS_DIR=TARGET_GUN
		CROSSPLANE_AXIS_DIR=LEFT_RIGHT
		DEPTH_AXIS_DIR=UP_DOWN
		ENERGY=6.00
		SSD=950.00
		WEDGE=None
		FIELD_INPLANE=100.00
		FIELD_CROSSPLANE=100.00
		FIELD_TYPE=RECTANGULAR
		GANTRY=0.00
		GANTRY_UPRIGHT_POSITION=0
		GANTRY_ROTATION=CW
		COLL_ANGLE=90.00
		COLL_OFFSET_INPLANE=0.00
		COLL_OFFSET_CROSSPLANE=0.00
		SCAN_DEVICE=STARCHECK
		ELECTROMETER=2D_ARRAY_INTERFACE
		DETECTOR=STARCHECK
		SCAN_CURVETYPE=CROSSPLANE_PROFILE
		SCAN_DEPTH=0.00
		SCAN_OFFAXIS_INPLANE=100.00
		SCAN_ANGLE=0.00
		SCAN_DIAGONAL=NOT_DIAGONAL
		MEAS_PRESET=TIME_PRESET
		MEAS_TIME=10.000
		MEAS_UNIT=GY
		PRESSURE=1013.25
		TEMPERATURE=20.00
		NORM_TEMPERATURE=20.00
		CORRECTION_FACTOR=1.0000
		CORRECTIONS=AIR_DENSITY_CORR;
		BEGIN_DATA
			-60.00		10.516E-03
			-30.00		14.738E-03
			30.00		14.974E-03
			60.00		9.6898E-03
		END_DATA
	END_SCAN  6
	BEGIN_SCAN  7
		TASK_NAME=MODE_INTERVAL
		PROGRAM=BeamAdjust 1.2
		MEAS_DATE=07-Oct-2010 13:49:38
		LINAC=A4
		MODALITY=X
		INPLANE_AXIS_DIR=TARGET_GUN
		CROSSPLANE_AXIS_DIR=LEFT_RIGHT
		DEPTH_AXIS_DIR=UP_DOWN
		ENERGY=6.00
		SSD=950.00
		WEDGE=None
		FIELD_INPLANE=100.00
		FIELD_CROSSPLANE=100.00
		FIELD_TYPE=RECTANGULAR
		GANTRY=0.00
		GANTRY_UPRIGHT_POSITION=0
		GANTRY_ROTATION=CW
		COLL_ANGLE=90.00
		COLL_OFFSET_INPLANE=0.00
		COLL_OFFSET_CROSSPLANE=0.00
		SCAN_DEVICE=STARCHECK
		ELECTROMETER=2D_ARRAY_INTERFACE
		DETECTOR=STARCHECK
		SCAN_CURVETYPE=CROSSPLANE_PROFILE
		SCAN_DEPTH=0.00
		SCAN_OFFAXIS_INPLANE=130.00
		SCAN_ANGLE=0.00
		SCAN_DIAGONAL=NOT_DIAGONAL
		MEAS_PRESET=TIME_PRESET
		MEAS_TIME=10.000
		MEAS_UNIT=GY
		PRESSURE=1013.25
		TEMPERATURE=20.00
		NORM_TEMPERATURE=20.00
		CORRECTION_FACTOR=1.0000
		CORRECTIONS=AIR_DENSITY_CORR;
		BEGIN_DATA
			-130.00		2.0166E-03
			-80.00		4.0735E-03
			-40.00		7.3121E-03
			40.00		7.3554E-03
			80.00		4.4657E-03
			130.00		2.6049E-03
		END_DATA
	END_SCAN  7
	BEGIN_SCAN  8
		TASK_NAME=MODE_INTERVAL
		PROGRAM=BeamAdjust 1.2
		MEAS_DATE=07-Oct-2010 13:49:38
		LINAC=A4
		MODALITY=X
		INPLANE_AXIS_DIR=TARGET_GUN
		CROSSPLANE_AXIS_DIR=LEFT_RIGHT
		DEPTH_AXIS_DIR=UP_DOWN
		ENERGY=6.00
		SSD=950.00
		WEDGE=None
		FIELD_INPLANE=100.00
		FIELD_CROSSPLANE=100.00
		FIELD_TYPE=RECTANGULAR
		GANTRY=0.00
		GANTRY_UPRIGHT_POSITION=0
		GANTRY_ROTATION=CW
		COLL_ANGLE=90.00
		COLL_OFFSET_INPLANE=0.00
		COLL_OFFSET_CROSSPLANE=0.00
		SCAN_DEVICE=STARCHECK
		ELECTROMETER=2D_ARRAY_INTERFACE
		DETECTOR=STARCHECK
		SCAN_CURVETYPE=INPLANE_PROFILE
		SCAN_DEPTH=0.00
		SCAN_OFFAXIS_CROSSPLANE=-130.00
		SCAN_ANGLE=0.00
		SCAN_DIAGONAL=NOT_DIAGONAL
		MEAS_PRESET=TIME_PRESET
		MEAS_TIME=10.000
		MEAS_UNIT=GY
		PRESSURE=1013.25
		TEMPERATURE=20.00
		NORM_TEMPERATURE=20.00
		CORRECTION_FACTOR=1.0000
		CORRECTIONS=AIR_DENSITY_CORR;
		BEGIN_DATA
			-130.00		2.4465E-03
			-125.00		2.8366E-03
			-120.00		3.1008E-03
			-115.00		3.7059E-03
			-110.00		3.4505E-03
			-105.00		3.5979E-03
			-100.00		4.0926E-03
			-95.00		4.6620E-03
			-90.00		4.5474E-03
			-85.00		4.2819E-03
			-80.00		4.1288E-03
			-75.00		4.9468E-03
			-70.00		4.6791E-03
			-65.00		4.8304E-03
			-60.00		5.4341E-03
			-55.00		5.8710E-03
			-50.00		4.6702E-03
			-45.00		4.8645E-03
			-40.00		4.6021E-03
			-35.00		5.2946E-03
			-30.00		5.1598E-03
			-25.00		5.5198E-03
			-20.00		5.2277E-03
			-15.00		5.1595E-03
			-10.00		5.3968E-03
			-5.00		6.4525E-03
			0.00		6.1953E-03
			5.00		6.3318E-03
			10.00		5.6315E-03
			15.00		5.2392E-03
			20.00		5.7277E-03
			25.00		5.0538E-03
			30.00		5.5229E-03
			35.00		5.6805E-03
			40.00		5.3861E-03
			45.00		5.1779E-03
			50.00		4.9863E-03
			55.00		4.3531E-03
			60.00		4.4514E-03
			65.00		4.0475E-03
			70.00		3.7591E-03
			75.00		4.2854E-03
			80.00		3.6161E-03
			85.00		3.6514E-03
			90.00		3.6139E-03
			95.00		3.4553E-03
			100.00		3.2610E-03
			105.00		2.5772E-03
			110.00		3.0048E-03
			115.00		2.7555E-03
			120.00		2.4843E-03
			125.00		2.7016E-03
			130.00		2.0166E-03
		END_DATA
	END_SCAN  8
	BEGIN_SCAN  9
		TASK_NAME=MODE_INTERVAL
		PROGRAM=BeamAdjust 1.2
		MEAS_DATE=07-Oct-2010 13:49:38
		LINAC=A4
		MODALITY=X
		INPLANE_AXIS_DIR=TARGET_GUN
		CROSSPLANE_AXIS_DIR=LEFT_RIGHT
		DEPTH_AXIS_DIR=UP_DOWN
		ENERGY=6.00
		SSD=950.00
		WEDGE=None
		FIELD_INPLANE=100.00
		FIELD_CROSSPLANE=100.00
		FIELD_TYPE=RECTANGULAR
		GANTRY=0.00
		GANTRY_UPRIGHT_POSITION=0
		GANTRY_ROTATION=CW
		COLL_ANGLE=90.00
		COLL_OFFSET_INPLANE=0.00
		COLL_OFFSET_CROSSPLANE=0.00
		SCAN_DEVICE=STARCHECK
		ELECTROMETER=2D_ARRAY_INTERFACE
		DETECTOR=STARCHECK
		SCAN_CURVETYPE=INPLANE_PROFILE
		SCAN_DEPTH=0.00
		SCAN_OFFAXIS_CROSSPLANE=-100.00
		SCAN_ANGLE=0.00
		SCAN_DIAGONAL=NOT_DIAGONAL
		MEAS_PRESET=TIME_PRESET
		MEAS_TIME=10.000
		MEAS_UNIT=GY
		PRESSURE=1013.25
		TEMPERATURE=20.00
		NORM_TEMPERATURE=20.00
		CORRECTION_FACTOR=1.0000
		CORRECTIONS=AIR_DENSITY_CORR;
		BEGIN_DATA
			-60.00		8.2440E-03
			-30.00		10.373E-03
			30.00		9.7626E-03
			60.00		7.8322E-03
		END_DATA
	END_SCAN  9
	BEGIN_SCAN  10
		TASK_NAME=MODE_INTERVAL
		PROGRAM=BeamAdjust 1.2
		MEAS_DATE=07-Oct-2010 13:49:38
		LINAC=A4
		MODALITY=X
		INPLANE_AXIS_DIR=TARGET_GUN
		CROSSPLANE_AXIS_DIR=LEFT_RIGHT
		DEPTH_AXIS_DIR=UP_DOWN
		ENERGY=6.00
		SSD=950.00
		WEDGE=None
		FIELD_INPLANE=100.00
		FIELD_CROSSPLANE=100.00
		FIELD_TYPE=RECTANGULAR
		GANTRY=0.00
		GANTRY_UPRIGHT_POSITION=0
		GANTRY_ROTATION=CW
		COLL_ANGLE=90.00
		COLL_OFFSET_INPLANE=0.00
		COLL_OFFSET_CROSSPLANE=0.00
		SCAN_DEVICE=STARCHECK
		ELECTROMETER=2D_ARRAY_INTERFACE
		DETECTOR=STARCHECK
		SCAN_CURVETYPE=INPLANE_PROFILE
		SCAN_DEPTH=0.00
		SCAN_OFFAXIS_CROSSPLANE=-50.00
		SCAN_ANGLE=0.00
		SCAN_DIAGONAL=NOT_DIAGONAL
		MEAS_PRESET=TIME_PRESET
		MEAS_TIME=10.000
		MEAS_UNIT=GY
		PRESSURE=1013.25
		TEMPERATURE=20.00
		NORM_TEMPERATURE=20.00
		CORRECTION_FACTOR=1.0000
		CORRECTIONS=AIR_DENSITY_CORR;
		BEGIN_DATA
			-30.00		171.97E-03
			-15.00		170.74E-03
			15.00		163.00E-03
			30.00		153.44E-03
		END_DATA
	END_SCAN  10
	BEGIN_SCAN  11
		TASK_NAME=MODE_INTERVAL
		PROGRAM=BeamAdjust 1.2
		MEAS_DATE=07-Oct-2010 13:49:38
		LINAC=A4
		MODALITY=X
		INPLANE_AXIS_DIR=TARGET_GUN
		CROSSPLANE_AXIS_DIR=LEFT_RIGHT
		DEPTH_AXIS_DIR=UP_DOWN
		ENERGY=6.00
		SSD=950.00
		WEDGE=None
		FIELD_INPLANE=100.00
		FIELD_CROSSPLANE=100.00
		FIELD_TYPE=RECTANGULAR
		GANTRY=0.00
		GANTRY_UPRIGHT_POSITION=0
		GANTRY_ROTATION=CW
		COLL_ANGLE=90.00
		COLL_OFFSET_INPLANE=0.00
		COLL_OFFSET_CROSSPLANE=0.00
		SCAN_DEVICE=STARCHECK
		ELECTROMETER=2D_ARRAY_INTERFACE
		DETECTOR=STARCHECK
		SCAN_CURVETYPE=INPLANE_PROFILE
		SCAN_DEPTH=0.00
		SCAN_OFFAXIS_CROSSPLANE=0.00
		SCAN_ANGLE=0.00
		SCAN_DIAGONAL=NOT_DIAGONAL
		MEAS_PRESET=TIME_PRESET
		MEAS_TIME=10.000
		MEAS_UNIT=GY
		PRESSURE=1013.25
		TEMPERATURE=20.00
		NORM_TEMPERATURE=20.00
		CORRECTION_FACTOR=1.0000
		CORRECTIONS=AIR_DENSITY_CORR;
		BEGIN_DATA
			-126.00		9.2255E-03
			-123.00		8.9959E-03
			-120.00		10.104E-03
			-117.00		11.434E-03
			-114.00		11.845E-03
			-111.00		12.941E-03
			-108.00		13.941E-03
			-105.00		14.801E-03
			-102.00		16.177E-03
			-99.00		16.626E-03
			-96.00		18.202E-03
			-93.00		20.317E-03
			-90.00		22.291E-03
			-87.00		23.620E-03
			-84.00		25.808E-03
			-81.00		28.192E-03
			-78.00		30.701E-03
			-75.00		33.418E-03
			-72.00		37.044E-03
			-69.00		40.641E-03
			-66.00		46.129E-03
			-63.00		52.459E-03
			-60.00		62.713E-03
			-57.00		82.826E-03
			-54.00		134.71E-03
			-51.00		311.56E-03
			-48.00		559.12E-03
			-45.00		622.10E-03
			-42.00		641.54E-03
			-39.00		650.10E-03
			-36.00		655.51E-03
			-33.00		659.02E-03
			-30.00		662.45E-03
			-27.00		663.86E-03
			-24.00		662.82E-03
			-21.00		662.10E-03
			-18.00		668.77E-03
			-15.00		667.34E-03
			-12.00		668.86E-03
			-9.00		668.68E-03
			-6.00		666.73E-03
			0.00		665.37E-03
			6.00		670.31E-03
			9.00		669.41E-03
			12.00		668.27E-03
			15.00		665.83E-03
			18.00		661.53E-03
			21.00		661.47E-03
			24.00		658.62E-03
			27.00		660.11E-03
			30.00		656.03E-03
			33.00		654.03E-03
			36.00		651.18E-03
			39.00		640.07E-03
			42.00		628.02E-03
			45.00		594.25E-03
			48.00		427.36E-03
			51.00		185.60E-03
			54.00		97.828E-03
			57.00		70.021E-03
			60.00		56.725E-03
			63.00		48.913E-03
			66.00		43.515E-03
			69.00		38.668E-03
			72.00		35.379E-03
			75.00		31.656E-03
			78.00		28.432E-03
			81.00		26.479E-03
			84.00		24.270E-03
			87.00		23.023E-03
			90.00		21.281E-03
			93.00		19.358E-03
			96.00		18.272E-03
			99.00		16.931E-03
			102.00		15.188E-03
			105.00		14.087E-03
			108.00		13.464E-03
			111.00		12.414E-03
			114.00		11.887E-03
			117.00		11.243E-03
			120.00		10.463E-03
			123.00		9.9131E-03
			126.00		8.9257E-03
		END_DATA
	END_SCAN  11
	BEGIN_SCAN  12
		TASK_NAME=MODE_INTERVAL
		PROGRAM=BeamAdjust 1.2
		MEAS_DATE=07-Oct-2010 13:49:38
		LINAC=A4
		MODALITY=X
		INPLANE_AXIS_DIR=TARGET_GUN
		CROSSPLANE_AXIS_DIR=LEFT_RIGHT
		DEPTH_AXIS_DIR=UP_DOWN
		ENERGY=6.00
		SSD=950.00
		WEDGE=None
		FIELD_INPLANE=100.00
		FIELD_CROSSPLANE=100.00
		FIELD_TYPE=RECTANGULAR
		GANTRY=0.00
		GANTRY_UPRIGHT_POSITION=0
		GANTRY_ROTATION=CW
		COLL_ANGLE=90.00
		COLL_OFFSET_INPLANE=0.00
		COLL_OFFSET_CROSSPLANE=0.00
		SCAN_DEVICE=STARCHECK
		ELECTROMETER=2D_ARRAY_INTERFACE
		DETECTOR=STARCHECK
		SCAN_CURVETYPE=INPLANE_PROFILE
		SCAN_DEPTH=0.00
		SCAN_OFFAXIS_CROSSPLANE=50.00
		SCAN_ANGLE=0.00
		SCAN_DIAGONAL=NOT_DIAGONAL
		MEAS_PRESET=TIME_PRESET
		MEAS_TIME=10.000
		MEAS_UNIT=GY
		PRESSURE=1013.25
		TEMPERATURE=20.00
		NORM_TEMPERATURE=20.00
		CORRECTION_FACTOR=1.0000
		CORRECTIONS=AIR_DENSITY_CORR;
		BEGIN_DATA
			-30.00		547.05E-03
			-15.00		554.63E-03
			15.00		557.86E-03
			30.00		557.93E-03
		END_DATA
	END_SCAN  12
	BEGIN_SCAN  13
		TASK_NAME=MODE_INTERVAL
		PROGRAM=BeamAdjust 1.2
		MEAS_DATE=07-Oct-2010 13:49:38
		LINAC=A4
		MODALITY=X
		INPLANE_AXIS_DIR=TARGET_GUN
		CROSSPLANE_AXIS_DIR=LEFT_RIGHT
		DEPTH_AXIS_DIR=UP_DOWN
		ENERGY=6.00
		SSD=950.00
		WEDGE=None
		FIELD_INPLANE=100.00
		FIELD_CROSSPLANE=100.00
		FIELD_TYPE=RECTANGULAR
		GANTRY=0.00
		GANTRY_UPRIGHT_POSITION=0
		GANTRY_ROTATION=CW
		COLL_ANGLE=90.00
		COLL_OFFSET_INPLANE=0.00
		COLL_OFFSET_CROSSPLANE=0.00
		SCAN_DEVICE=STARCHECK
		ELECTROMETER=2D_ARRAY_INTERFACE
		DETECTOR=STARCHECK
		SCAN_CURVETYPE=INPLANE_PROFILE
		SCAN_DEPTH=0.00
		SCAN_OFFAXIS_CROSSPLANE=100.00
		SCAN_ANGLE=0.00
		SCAN_DIAGONAL=NOT_DIAGONAL
		MEAS_PRESET=TIME_PRESET
		MEAS_TIME=10.000
		MEAS_UNIT=GY
		PRESSURE=1013.25
		TEMPERATURE=20.00
		NORM_TEMPERATURE=20.00
		CORRECTION_FACTOR=1.0000
		CORRECTIONS=AIR_DENSITY_CORR;
		BEGIN_DATA
			-60.00		8.7309E-03
			-30.00		11.199E-03
			30.00		11.335E-03
			60.00		8.0203E-03
		END_DATA
	END_SCAN  13
	BEGIN_SCAN  14
		TASK_NAME=MODE_INTERVAL
		PROGRAM=BeamAdjust 1.2
		MEAS_DATE=07-Oct-2010 13:49:38
		LINAC=A4
		MODALITY=X
		INPLANE_AXIS_DIR=TARGET_GUN
		CROSSPLANE_AXIS_DIR=LEFT_RIGHT
		DEPTH_AXIS_DIR=UP_DOWN
		ENERGY=6.00
		SSD=950.00
		WEDGE=None
		FIELD_INPLANE=100.00
		FIELD_CROSSPLANE=100.00
		FIELD_TYPE=RECTANGULAR
		GANTRY=0.00
		GANTRY_UPRIGHT_POSITION=0
		GANTRY_ROTATION=CW
		COLL_ANGLE=90.00
		COLL_OFFSET_INPLANE=0.00
		COLL_OFFSET_CROSSPLANE=0.00
		SCAN_DEVICE=STARCHECK
		ELECTROMETER=2D_ARRAY_INTERFACE
		DETECTOR=STARCHECK
		SCAN_CURVETYPE=INPLANE_PROFILE
		SCAN_DEPTH=0.00
		SCAN_OFFAXIS_CROSSPLANE=130.00
		SCAN_ANGLE=0.00
		SCAN_DIAGONAL=NOT_DIAGONAL
		MEAS_PRESET=TIME_PRESET
		MEAS_TIME=10.000
		MEAS_UNIT=GY
		PRESSURE=1013.25
		TEMPERATURE=20.00
		NORM_TEMPERATURE=20.00
		CORRECTION_FACTOR=1.0000
		CORRECTIONS=AIR_DENSITY_CORR;
		BEGIN_DATA
			-130.00		1.9958E-03
			-125.00		2.8995E-03
			-120.00		2.6559E-03
			-115.00		3.1406E-03
			-110.00		3.2573E-03
			-105.00		3.1482E-03
			-100.00		3.4102E-03
			-95.00		3.3211E-03
			-90.00		2.9590E-03
			-85.00		4.6304E-03
			-80.00		3.9556E-03
			-75.00		3.8952E-03
			-70.00		4.4098E-03
			-65.00		4.7096E-03
			-60.00		5.2764E-03
			-55.00		4.8211E-03
			-50.00		4.7124E-03
			-45.00		5.0721E-03
			-40.00		5.4431E-03
			-35.00		5.6426E-03
			-30.00		5.7566E-03
			-25.00		5.7091E-03
			-20.00		6.0860E-03
			-15.00		6.2552E-03
			-10.00		5.0649E-03
			-5.00		6.5835E-03
			0.00		6.6358E-03
			5.00		6.0994E-03
			10.00		6.5688E-03
			15.00		5.7467E-03
			20.00		5.8381E-03
			25.00		5.8454E-03
			30.00		4.9093E-03
			35.00		5.4537E-03
			40.00		6.1462E-03
			45.00		5.3310E-03
			50.00		5.2114E-03
			55.00		5.9851E-03
			60.00		4.7831E-03
			65.00		3.9154E-03
			70.00		4.1996E-03
			75.00		4.3239E-03
			80.00		4.2687E-03
			85.00		4.2940E-03
			90.00		3.6272E-03
			95.00		3.2301E-03
			100.00		3.7398E-03
			105.00		2.7061E-03
			110.00		2.7536E-03
			115.00		2.8699E-03
			120.00		2.9262E-03
			125.00		2.9792E-03
			130.00		2.6049E-03
		END_DATA
	END_SCAN  14
	BEGIN_SCAN  15
		TASK_NAME=MODE_INTERVAL
		PROGRAM=BeamAdjust 1.2
		MEAS_DATE=07-Oct-2010 13:49:38
		LINAC=A4
		MODALITY=X
		INPLANE_AXIS_DIR=TARGET_GUN
		CROSSPLANE_AXIS_DIR=LEFT_RIGHT
		DEPTH_AXIS_DIR=UP_DOWN
		ENERGY=6.00
		SSD=950.00
		WEDGE=None
		FIELD_INPLANE=100.00
		FIELD_CROSSPLANE=100.00
		FIELD_TYPE=RECTANGULAR
		GANTRY=0.00
		GANTRY_UPRIGHT_POSITION=0
		GANTRY_ROTATION=CW
		COLL_ANGLE=90.00
		COLL_OFFSET_INPLANE=0.00
		COLL_OFFSET_CROSSPLANE=0.00
		SCAN_DEVICE=STARCHECK
		ELECTROMETER=2D_ARRAY_INTERFACE
		DETECTOR=STARCHECK
		SCAN_CURVETYPE=INPLANE_PROFILE
		SCAN_DEPTH=0.00
		SCAN_OFFAXIS_CROSSPLANE=0.00
		SCAN_ANGLE=0.00
		SCAN_DIAGONAL=FIRST_DIAGONAL
		MEAS_PRESET=TIME_PRESET
		MEAS_TIME=10.000
		MEAS_UNIT=GY
		PRESSURE=1013.25
		TEMPERATURE=20.00
		NORM_TEMPERATURE=20.00
		CORRECTION_FACTOR=1.0000
		CORRECTIONS=AIR_DENSITY_CORR;
		BEGIN_DATA
			-172.40		2.4388E-03
			-169.40		2.9487E-03
			-166.40		3.9249E-03
			-163.40		3.4135E-03
			-160.40		4.0713E-03
			-157.40		4.0990E-03
			-154.40		4.0667E-03
			-151.40		4.4190E-03
			-148.40		4.7231E-03
			-145.40		5.1599E-03
			-142.40		5.4415E-03
			-139.40		5.6329E-03
			-136.40		5.9037E-03
			-133.40		7.1204E-03
			-130.40		7.1202E-03
			-127.40		7.5499E-03
			-124.40		8.0322E-03
			-121.40		8.6695E-03
			-118.40		9.5091E-03
			-115.40		10.202E-03
			-112.40		10.761E-03
			-109.40		12.024E-03
			-106.40		13.076E-03
			-103.40		13.514E-03
			-100.40		14.765E-03
			-97.40		17.035E-03
			-94.40		18.542E-03
			-91.40		21.183E-03
			-88.40		23.039E-03
			-85.40		25.732E-03
			-82.40		29.393E-03
			-79.40		33.744E-03
			-76.40		41.136E-03
			-73.40		58.472E-03
			-70.40		115.10E-03
			-67.40		281.63E-03
			-64.40		467.20E-03
			-61.40		570.30E-03
			-58.40		608.80E-03
			-55.40		627.06E-03
			-52.40		637.10E-03
			-49.40		643.77E-03
			-46.40		646.87E-03
			-43.40		649.74E-03
			-40.40		652.63E-03
			-37.40		657.68E-03
			-34.40		657.35E-03
			-31.40		659.74E-03
			-28.40		658.80E-03
			-25.40		661.57E-03
			-22.40		661.78E-03
			-19.40		661.75E-03
			-16.40		665.40E-03
			-13.40		668.59E-03
			0.00		665.37E-03
			13.40		671.12E-03
			16.40		666.21E-03
			19.40		665.52E-03
			22.40		663.97E-03
			25.40		663.03E-03
			28.40		661.74E-03
			31.40		660.09E-03
			34.40		657.31E-03
			37.40		660.17E-03
			40.40		657.70E-03
			43.40		654.50E-03
			46.40		652.50E-03
			49.40		646.90E-03
			52.40		642.41E-03
			55.40		632.40E-03
			58.40		620.22E-03
			61.40		593.81E-03
			64.40		518.93E-03
			67.40		380.10E-03
			70.40		209.60E-03
			73.40		91.977E-03
			76.40		53.322E-03
			79.40		40.112E-03
			82.40		33.146E-03
			85.40		28.822E-03
			88.40		25.986E-03
			91.40		22.403E-03
			94.40		20.609E-03
			97.40		19.294E-03
			100.40		16.923E-03
			103.40		16.001E-03
			106.40		14.386E-03
			109.40		12.916E-03
			112.40		11.023E-03
			115.40		10.436E-03
			118.40		9.3705E-03
			121.40		8.9548E-03
			124.40		8.7504E-03
			127.40		8.3250E-03
			130.40		8.0415E-03
			133.40		6.9069E-03
			136.40		5.6813E-03
			139.40		5.9892E-03
			142.40		5.0932E-03
			145.40		5.2186E-03
			148.40		5.1504E-03
			151.40		4.6495E-03
			154.40		4.8992E-03
			157.40		4.2008E-03
			160.40		3.4071E-03
			163.40		3.3851E-03
			166.40		3.3541E-03
			169.40		3.0703E-03
			172.40		3.2877E-03
		END_DATA
	END_SCAN  15
	BEGIN_SCAN  16
		TASK_NAME=MODE_INTERVAL
		PROGRAM=BeamAdjust 1.2
		MEAS_DATE=07-Oct-2010 13:49:38
		LINAC=A4
		MODALITY=X
		INPLANE_AXIS_DIR=GUN_TARGET
		CROSSPLANE_AXIS_DIR=LEFT_RIGHT
		DEPTH_AXIS_DIR=UP_DOWN
		ENERGY=6.00
		SSD=950.00
		WEDGE=None
		FIELD_INPLANE=100.00
		FIELD_CROSSPLANE=100.00
		FIELD_TYPE=RECTANGULAR
		GANTRY=0.00
		GANTRY_UPRIGHT_POSITION=0
		GANTRY_ROTATION=CW
		COLL_ANGLE=90.00
		COLL_OFFSET_INPLANE=0.00
		COLL_OFFSET_CROSSPLANE=0.00
		SCAN_DEVICE=STARCHECK
		ELECTROMETER=2D_ARRAY_INTERFACE
		DETECTOR=STARCHECK
		SCAN_CURVETYPE=INPLANE_PROFILE
		SCAN_DEPTH=0.00
		SCAN_OFFAXIS_CROSSPLANE=0.00
		SCAN_ANGLE=0.00
		SCAN_DIAGONAL=SECOND_DIAGONAL
		MEAS_PRESET=TIME_PRESET
		MEAS_TIME=10.000
		MEAS_UNIT=GY
		PRESSURE=1013.25
		TEMPERATURE=20.00
		NORM_TEMPERATURE=20.00
		CORRECTION_FACTOR=1.0000
		CORRECTIONS=AIR_DENSITY_CORR;
		BEGIN_DATA
			-172.40		3.8822E-03
			-169.40		3.4065E-03
			-166.40		3.2318E-03
			-163.40		3.2347E-03
			-160.40		3.7486E-03
			-157.40		3.8989E-03
			-154.40		4.2569E-03
			-151.40		4.7276E-03
			-148.40		5.0393E-03
			-145.40		5.3563E-03
			-142.40		5.9124E-03
			-139.40		6.0454E-03
			-136.40		6.0267E-03
			-133.40		6.8525E-03
			-130.40		7.7648E-03
			-127.40		8.1257E-03
			-124.40		9.0074E-03
			-121.40		9.1726E-03
			-118.40		10.227E-03
			-115.40		10.803E-03
			-112.40		11.586E-03
			-109.40		13.348E-03
			-106.40		14.461E-03
			-103.40		15.650E-03
			-100.40		17.315E-03
			-97.40		18.736E-03
			-94.40		20.465E-03
			-91.40		23.093E-03
			-88.40		26.060E-03
			-85.40		29.189E-03
			-82.40		34.461E-03
			-79.40		43.407E-03
			-76.40		62.166E-03
			-73.40		127.52E-03
			-70.40		307.55E-03
			-67.40		492.38E-03
			-64.40		583.74E-03
			-61.40		617.46E-03
			-58.40		634.61E-03
			-55.40		642.08E-03
			-52.40		651.19E-03
			-49.40		654.77E-03
			-46.40		657.43E-03
			-43.40		659.87E-03
			-40.40		662.27E-03
			-37.40		665.06E-03
			-34.40		664.07E-03
			-31.40		664.81E-03
			-28.40		666.95E-03
			-25.40		665.95E-03
			-22.40		664.11E-03
			-19.40		667.94E-03
			-16.40		669.47E-03
			-13.40		671.59E-03
			0.00		665.37E-03
			13.40		668.23E-03
			16.40		665.71E-03
			19.40		663.23E-03
			22.40		660.61E-03
			25.40		660.08E-03
			28.40		658.64E-03
			31.40		656.58E-03
			34.40		653.29E-03
			37.40		653.03E-03
			40.40		651.35E-03
			43.40		648.75E-03
			46.40		646.26E-03
			49.40		640.88E-03
			52.40		630.44E-03
			55.40		618.65E-03
			58.40		599.17E-03
			61.40		544.62E-03
			64.40		399.97E-03
			67.40		192.39E-03
			70.40		80.797E-03
			73.40		49.484E-03
			76.40		37.464E-03
			79.40		31.328E-03
			82.40		28.170E-03
			85.40		25.129E-03
			88.40		22.394E-03
			91.40		20.502E-03
			94.40		18.375E-03
			97.40		16.491E-03
			100.40		14.808E-03
			103.40		13.548E-03
			106.40		12.579E-03
			109.40		11.460E-03
			112.40		10.692E-03
			115.40		9.5604E-03
			118.40		9.0754E-03
			121.40		8.3115E-03
			124.40		7.4379E-03
			127.40		7.2278E-03
			130.40		7.2711E-03
			133.40		6.3059E-03
			136.40		5.9152E-03
			139.40		6.1705E-03
			142.40		6.0643E-03
			145.40		5.2933E-03
			148.40		4.7283E-03
			151.40		4.0806E-03
			154.40		3.8337E-03
			157.40		3.9539E-03
			160.40		3.6926E-03
			163.40		4.2113E-03
			166.40		3.7275E-03
			169.40		2.9699E-03
			172.40		2.5441E-03
		END_DATA
	END_SCAN  16
END_SCAN_DATA
