BEGIN_SCAN_DATA
	FORMAT=CC-Export V1.9                  
	FILE_CREATION_DATE=07-Oct-2010 13:49:01
	LAST_MODIFIED=07-Oct-2010 13:49:01
	BEGIN_SCAN  1
		TASK_NAME=MODE_INTERVAL
		PROGRAM=BeamAdjust 1.2
		MEAS_DATE=07-Oct-2010 13:49:01
		LINAC=A4
		MODALITY=X
		INPLANE_AXIS_DIR=TARGET_GUN
		CROSSPLANE_AXIS_DIR=LEFT_RIGHT
		DEPTH_AXIS_DIR=UP_DOWN
		ENERGY=6.00
		SSD=950.00
		WEDGE=None
		FIELD_INPLANE=100.00
		FIELD_CROSSPLANE=100.00
		FIELD_TYPE=RECTANGULAR
		GANTRY=0.00
		GANTRY_UPRIGHT_POSITION=0
		GANTRY_ROTATION=CW
		COLL_ANGLE=90.00
		COLL_OFFSET_INPLANE=0.00
		COLL_OFFSET_CROSSPLANE=0.00
		SCAN_DEVICE=STARCHECK
		ELECTROMETER=2D_ARRAY_INTERFACE
		DETECTOR=STARCHECK
		SCAN_CURVETYPE=CROSSPLANE_PROFILE
		SCAN_DEPTH=0.00
		SCAN_OFFAXIS_INPLANE=-130.00
		SCAN_ANGLE=0.00
		SCAN_DIAGONAL=NOT_DIAGONAL
		MEAS_PRESET=TIME_PRESET
		MEAS_TIME=10.000
		MEAS_UNIT=GY
		PRESSURE=1013.25
		TEMPERATURE=20.00
		NORM_TEMPERATURE=20.00
		CORRECTION_FACTOR=1.0000
		CORRECTIONS=AIR_DENSITY_CORR;
		BEGIN_DATA
			-130.00		2.4718E-03
			-80.00		4.2508E-03
			-40.00		7.0585E-03
			40.00		7.3274E-03
			80.00		4.2186E-03
			130.00		2.1828E-03
		END_DATA
	END_SCAN  1
	BEGIN_SCAN  2
		TASK_NAME=MODE_INTERVAL
		PROGRAM=BeamAdjust 1.2
		MEAS_DATE=07-Oct-2010 13:49:01
		LINAC=A4
		MODALITY=X
		INPLANE_AXIS_DIR=TARGET_GUN
		CROSSPLANE_AXIS_DIR=LEFT_RIGHT
		DEPTH_AXIS_DIR=UP_DOWN
		ENERGY=6.00
		SSD=950.00
		WEDGE=None
		FIELD_INPLANE=100.00
		FIELD_CROSSPLANE=100.00
		FIELD_TYPE=RECTANGULAR
		GANTRY=0.00
		GANTRY_UPRIGHT_POSITION=0
		GANTRY_ROTATION=CW
		COLL_ANGLE=90.00
		COLL_OFFSET_INPLANE=0.00
		COLL_OFFSET_CROSSPLANE=0.00
		SCAN_DEVICE=STARCHECK
		ELECTROMETER=2D_ARRAY_INTERFACE
		DETECTOR=STARCHECK
		SCAN_CURVETYPE=CROSSPLANE_PROFILE
		SCAN_DEPTH=0.00
		SCAN_OFFAXIS_INPLANE=-100.00
		SCAN_ANGLE=0.00
		SCAN_DIAGONAL=NOT_DIAGONAL
		MEAS_PRESET=TIME_PRESET
		MEAS_TIME=10.000
		MEAS_UNIT=GY
		PRESSURE=1013.25
		TEMPERATURE=20.00
		NORM_TEMPERATURE=20.00
		CORRECTION_FACTOR=1.0000
		CORRECTIONS=AIR_DENSITY_CORR;
		BEGIN_DATA
			-60.00		10.830E-03
			-30.00		14.250E-03
			30.00		15.200E-03
			60.00		10.944E-03
		END_DATA
	END_SCAN  2
	BEGIN_SCAN  3
		TASK_NAME=MODE_INTERVAL
		PROGRAM=BeamAdjust 1.2
		MEAS_DATE=07-Oct-2010 13:49:01
		LINAC=A4
		MODALITY=X
		INPLANE_AXIS_DIR=TARGET_GUN
		CROSSPLANE_AXIS_DIR=LEFT_RIGHT
		DEPTH_AXIS_DIR=UP_DOWN
		ENERGY=6.00
		SSD=950.00
		WEDGE=None
		FIELD_INPLANE=100.00
		FIELD_CROSSPLANE=100.00
		FIELD_TYPE=RECTANGULAR
		GANTRY=0.00
		GANTRY_UPRIGHT_POSITION=0
		GANTRY_ROTATION=CW
		COLL_ANGLE=90.00
		COLL_OFFSET_INPLANE=0.00
		COLL_OFFSET_CROSSPLANE=0.00
		SCAN_DEVICE=STARCHECK
		ELECTROMETER=2D_ARRAY_INTERFACE
		DETECTOR=STARCHECK
		SCAN_CURVETYPE=CROSSPLANE_PROFILE
		SCAN_DEPTH=0.00
		SCAN_OFFAXIS_INPLANE=-50.00
		SCAN_ANGLE=0.00
		SCAN_DIAGONAL=NOT_DIAGONAL
		MEAS_PRESET=TIME_PRESET
		MEAS_TIME=10.000
		MEAS_UNIT=GY
		PRESSURE=1013.25
		TEMPERATURE=20.00
		NORM_TEMPERATURE=20.00
		CORRECTION_FACTOR=1.0000
		CORRECTIONS=AIR_DENSITY_CORR;
		BEGIN_DATA
			-30.00		390.33E-03
			-15.00		365.14E-03
			15.00		386.39E-03
			30.00		394.35E-03
		END_DATA
	END_SCAN  3
	BEGIN_SCAN  4
		TASK_NAME=MODE_INTERVAL
		PROGRAM=BeamAdjust 1.2
		MEAS_DATE=07-Oct-2010 13:49:01
		LINAC=A4
		MODALITY=X
		INPLANE_AXIS_DIR=TARGET_GUN
		CROSSPLANE_AXIS_DIR=LEFT_RIGHT
		DEPTH_AXIS_DIR=UP_DOWN
		ENERGY=6.00
		SSD=950.00
		WEDGE=None
		FIELD_INPLANE=100.00
		FIELD_CROSSPLANE=100.00
		FIELD_TYPE=RECTANGULAR
		GANTRY=0.00
		GANTRY_UPRIGHT_POSITION=0
		GANTRY_ROTATION=CW
		COLL_ANGLE=90.00
		COLL_OFFSET_INPLANE=0.00
		COLL_OFFSET_CROSSPLANE=0.00
		SCAN_DEVICE=STARCHECK
		ELECTROMETER=2D_ARRAY_INTERFACE
		DETECTOR=STARCHECK
		SCAN_CURVETYPE=CROSSPLANE_PROFILE
		SCAN_DEPTH=0.00
		SCAN_OFFAXIS_INPLANE=0.00
		SCAN_ANGLE=0.00
		SCAN_DIAGONAL=NOT_DIAGONAL
		MEAS_PRESET=TIME_PRESET
		MEAS_TIME=10.000
		MEAS_UNIT=GY
		PRESSURE=1013.25
		TEMPERATURE=20.00
		NORM_TEMPERATURE=20.00
		CORRECTION_FACTOR=1.0000
		CORRECTIONS=AIR_DENSITY_CORR;
		BEGIN_DATA
			-126.00		6.5842E-03
			-123.00		7.4756E-03
			-120.00		7.7975E-03
			-117.00		8.2991E-03
			-114.00		8.4756E-03
			-111.00		9.1072E-03
			-108.00		10.087E-03
			-105.00		10.845E-03
			-102.00		11.054E-03
			-99.00		12.273E-03
			-96.00		13.813E-03
			-93.00		13.956E-03
			-90.00		15.333E-03
			-87.00		16.839E-03
			-84.00		18.714E-03
			-81.00		20.151E-03
			-78.00		22.032E-03
			-75.00		24.394E-03
			-72.00		26.845E-03
			-69.00		30.356E-03
			-66.00		34.668E-03
			-63.00		38.812E-03
			-60.00		45.197E-03
			-57.00		55.016E-03
			-54.00		72.005E-03
			-51.00		114.27E-03
			-48.00		284.67E-03
			-45.00		548.20E-03
			-42.00		614.24E-03
			-39.00		637.33E-03
			-36.00		647.92E-03
			-33.00		649.88E-03
			-30.00		652.78E-03
			-27.00		656.02E-03
			-24.00		658.90E-03
			-21.00		659.10E-03
			-18.00		664.32E-03
			-15.00		664.59E-03
			-12.00		665.33E-03
			-9.00		668.17E-03
			-6.00		667.93E-03
			0.00		665.75E-03
			6.00		668.81E-03
			9.00		668.31E-03
			12.00		666.72E-03
			15.00		666.90E-03
			18.00		666.01E-03
			21.00		664.07E-03
			24.00		660.37E-03
			27.00		664.57E-03
			30.00		663.41E-03
			33.00		662.06E-03
			36.00		659.55E-03
			39.00		656.76E-03
			42.00		649.96E-03
			45.00		638.77E-03
			48.00		613.93E-03
			51.00		527.63E-03
			54.00		238.74E-03
			57.00		103.28E-03
			60.00		68.797E-03
			63.00		53.850E-03
			66.00		44.488E-03
			69.00		37.884E-03
			72.00		33.527E-03
			75.00		29.700E-03
			78.00		26.715E-03
			81.00		24.730E-03
			84.00		21.680E-03
			87.00		19.524E-03
			90.00		18.240E-03
			93.00		16.525E-03
			96.00		15.057E-03
			99.00		14.199E-03
			102.00		12.947E-03
			105.00		11.913E-03
			108.00		11.024E-03
			111.00		9.6091E-03
			114.00		9.4538E-03
			117.00		8.9498E-03
			120.00		8.3099E-03
			123.00		7.8929E-03
			126.00		7.5414E-03
		END_DATA
	END_SCAN  4
	BEGIN_SCAN  5
		TASK_NAME=MODE_INTERVAL
		PROGRAM=BeamAdjust 1.2
		MEAS_DATE=07-Oct-2010 13:49:01
		LINAC=A4
		MODALITY=X
		INPLANE_AXIS_DIR=TARGET_GUN
		CROSSPLANE_AXIS_DIR=LEFT_RIGHT
		DEPTH_AXIS_DIR=UP_DOWN
		ENERGY=6.00
		SSD=950.00
		WEDGE=None
		FIELD_INPLANE=100.00
		FIELD_CROSSPLANE=100.00
		FIELD_TYPE=RECTANGULAR
		GANTRY=0.00
		GANTRY_UPRIGHT_POSITION=0
		GANTRY_ROTATION=CW
		COLL_ANGLE=90.00
		COLL_OFFSET_INPLANE=0.00
		COLL_OFFSET_CROSSPLANE=0.00
		SCAN_DEVICE=STARCHECK
		ELECTROMETER=2D_ARRAY_INTERFACE
		DETECTOR=STARCHECK
		SCAN_CURVETYPE=CROSSPLANE_PROFILE
		SCAN_DEPTH=0.00
		SCAN_OFFAXIS_INPLANE=50.00
		SCAN_ANGLE=0.00
		SCAN_DIAGONAL=NOT_DIAGONAL
		MEAS_PRESET=TIME_PRESET
		MEAS_TIME=10.000
		MEAS_UNIT=GY
		PRESSURE=1013.25
		TEMPERATURE=20.00
		NORM_TEMPERATURE=20.00
		CORRECTION_FACTOR=1.0000
		CORRECTIONS=AIR_DENSITY_CORR;
		BEGIN_DATA
			-30.00		263.07E-03
			-15.00		284.10E-03
			15.00		258.64E-03
			30.00		257.70E-03
		END_DATA
	END_SCAN  5
	BEGIN_SCAN  6
		TASK_NAME=MODE_INTERVAL
		PROGRAM=BeamAdjust 1.2
		MEAS_DATE=07-Oct-2010 13:49:01
		LINAC=A4
		MODALITY=X
		INPLANE_AXIS_DIR=TARGET_GUN
		CROSSPLANE_AXIS_DIR=LEFT_RIGHT
		DEPTH_AXIS_DIR=UP_DOWN
		ENERGY=6.00
		SSD=950.00
		WEDGE=None
		FIELD_INPLANE=100.00
		FIELD_CROSSPLANE=100.00
		FIELD_TYPE=RECTANGULAR
		GANTRY=0.00
		GANTRY_UPRIGHT_POSITION=0
		GANTRY_ROTATION=CW
		COLL_ANGLE=90.00
		COLL_OFFSET_INPLANE=0.00
		COLL_OFFSET_CROSSPLANE=0.00
		SCAN_DEVICE=STARCHECK
		ELECTROMETER=2D_ARRAY_INTERFACE
		DETECTOR=STARCHECK
		SCAN_CURVETYPE=CROSSPLANE_PROFILE
		SCAN_DEPTH=0.00
		SCAN_OFFAXIS_INPLANE=100.00
		SCAN_ANGLE=0.00
		SCAN_DIAGONAL=NOT_DIAGONAL
		MEAS_PRESET=TIME_PRESET
		MEAS_TIME=10.000
		MEAS_UNIT=GY
		PRESSURE=1013.25
		TEMPERATURE=20.00
		NORM_TEMPERATURE=20.00
		CORRECTION_FACTOR=1.0000
		CORRECTIONS=AIR_DENSITY_CORR;
		BEGIN_DATA
			-60.00		10.149E-03
			-30.00		14.464E-03
			30.00		15.226E-03
			60.00		9.8024E-03
		END_DATA
	END_SCAN  6
	BEGIN_SCAN  7
		TASK_NAME=MODE_INTERVAL
		PROGRAM=BeamAdjust 1.2
		MEAS_DATE=07-Oct-2010 13:49:01
		LINAC=A4
		MODALITY=X
		INPLANE_AXIS_DIR=TARGET_GUN
		CROSSPLANE_AXIS_DIR=LEFT_RIGHT
		DEPTH_AXIS_DIR=UP_DOWN
		ENERGY=6.00
		SSD=950.00
		WEDGE=None
		FIELD_INPLANE=100.00
		FIELD_CROSSPLANE=100.00
		FIELD_TYPE=RECTANGULAR
		GANTRY=0.00
		GANTRY_UPRIGHT_POSITION=0
		GANTRY_ROTATION=CW
		COLL_ANGLE=90.00
		COLL_OFFSET_INPLANE=0.00
		COLL_OFFSET_CROSSPLANE=0.00
		SCAN_DEVICE=STARCHECK
		ELECTROMETER=2D_ARRAY_INTERFACE
		DETECTOR=STARCHECK
		SCAN_CURVETYPE=CROSSPLANE_PROFILE
		SCAN_DEPTH=0.00
		SCAN_OFFAXIS_INPLANE=130.00
		SCAN_ANGLE=0.00
		SCAN_DIAGONAL=NOT_DIAGONAL
		MEAS_PRESET=TIME_PRESET
		MEAS_TIME=10.000
		MEAS_UNIT=GY
		PRESSURE=1013.25
		TEMPERATURE=20.00
		NORM_TEMPERATURE=20.00
		CORRECTION_FACTOR=1.0000
		CORRECTIONS=AIR_DENSITY_CORR;
		BEGIN_DATA
			-130.00		1.9099E-03
			-80.00		4.2772E-03
			-40.00		7.6234E-03
			40.00		7.3421E-03
			80.00		4.7037E-03
			130.00		2.8281E-03
		END_DATA
	END_SCAN  7
	BEGIN_SCAN  8
		TASK_NAME=MODE_INTERVAL
		PROGRAM=BeamAdjust 1.2
		MEAS_DATE=07-Oct-2010 13:49:01
		LINAC=A4
		MODALITY=X
		INPLANE_AXIS_DIR=TARGET_GUN
		CROSSPLANE_AXIS_DIR=LEFT_RIGHT
		DEPTH_AXIS_DIR=UP_DOWN
		ENERGY=6.00
		SSD=950.00
		WEDGE=None
		FIELD_INPLANE=100.00
		FIELD_CROSSPLANE=100.00
		FIELD_TYPE=RECTANGULAR
		GANTRY=0.00
		GANTRY_UPRIGHT_POSITION=0
		GANTRY_ROTATION=CW
		COLL_ANGLE=90.00
		COLL_OFFSET_INPLANE=0.00
		COLL_OFFSET_CROSSPLANE=0.00
		SCAN_DEVICE=STARCHECK
		ELECTROMETER=2D_ARRAY_INTERFACE
		DETECTOR=STARCHECK
		SCAN_CURVETYPE=INPLANE_PROFILE
		SCAN_DEPTH=0.00
		SCAN_OFFAXIS_CROSSPLANE=-130.00
		SCAN_ANGLE=0.00
		SCAN_DIAGONAL=NOT_DIAGONAL
		MEAS_PRESET=TIME_PRESET
		MEAS_TIME=10.000
		MEAS_UNIT=GY
		PRESSURE=1013.25
		TEMPERATURE=20.00
		NORM_TEMPERATURE=20.00
		CORRECTION_FACTOR=1.0000
		CORRECTIONS=AIR_DENSITY_CORR;
		BEGIN_DATA
			-130.00		2.4718E-03
			-125.00		2.6489E-03
			-120.00		3.1838E-03
			-115.00		3.3731E-03
			-110.00		3.1834E-03
			-105.00		3.7378E-03
			-100.00		3.6732E-03
			-95.00		3.9994E-03
			-90.00		4.6807E-03
			-85.00		4.4844E-03
			-80.00		4.3602E-03
			-75.00		4.8879E-03
			-70.00		4.7162E-03
			-65.00		4.8866E-03
			-60.00		5.1734E-03
			-55.00		5.8488E-03
			-50.00		4.5665E-03
			-45.00		4.6611E-03
			-40.00		4.5179E-03
			-35.00		5.7827E-03
			-30.00		5.2864E-03
			-25.00		5.1194E-03
			-20.00		5.2203E-03
			-15.00		5.1876E-03
			-10.00		5.3717E-03
			-5.00		5.8631E-03
			0.00		5.9304E-03
			5.00		6.1974E-03
			10.00		5.9722E-03
			15.00		5.5182E-03
			20.00		5.6725E-03
			25.00		5.1074E-03
			30.00		5.4960E-03
			35.00		5.9368E-03
			40.00		5.1042E-03
			45.00		4.8875E-03
			50.00		5.0235E-03
			55.00		4.4423E-03
			60.00		4.5182E-03
			65.00		3.9572E-03
			70.00		3.8735E-03
			75.00		4.2809E-03
			80.00		3.7290E-03
			85.00		3.7123E-03
			90.00		3.4386E-03
			95.00		3.4418E-03
			100.00		3.1834E-03
			105.00		3.2724E-03
			110.00		2.7051E-03
			115.00		2.7659E-03
			120.00		2.7386E-03
			125.00		2.5976E-03
			130.00		1.9099E-03
		END_DATA
	END_SCAN  8
	BEGIN_SCAN  9
		TASK_NAME=MODE_INTERVAL
		PROGRAM=BeamAdjust 1.2
		MEAS_DATE=07-Oct-2010 13:49:01
		LINAC=A4
		MODALITY=X
		INPLANE_AXIS_DIR=TARGET_GUN
		CROSSPLANE_AXIS_DIR=LEFT_RIGHT
		DEPTH_AXIS_DIR=UP_DOWN
		ENERGY=6.00
		SSD=950.00
		WEDGE=None
		FIELD_INPLANE=100.00
		FIELD_CROSSPLANE=100.00
		FIELD_TYPE=RECTANGULAR
		GANTRY=0.00
		GANTRY_UPRIGHT_POSITION=0
		GANTRY_ROTATION=CW
		COLL_ANGLE=90.00
		COLL_OFFSET_INPLANE=0.00
		COLL_OFFSET_CROSSPLANE=0.00
		SCAN_DEVICE=STARCHECK
		ELECTROMETER=2D_ARRAY_INTERFACE
		DETECTOR=STARCHECK
		SCAN_CURVETYPE=INPLANE_PROFILE
		SCAN_DEPTH=0.00
		SCAN_OFFAXIS_CROSSPLANE=-100.00
		SCAN_ANGLE=0.00
		SCAN_DIAGONAL=NOT_DIAGONAL
		MEAS_PRESET=TIME_PRESET
		MEAS_TIME=10.000
		MEAS_UNIT=GY
		PRESSURE=1013.25
		TEMPERATURE=20.00
		NORM_TEMPERATURE=20.00
		CORRECTION_FACTOR=1.0000
		CORRECTIONS=AIR_DENSITY_CORR;
		BEGIN_DATA
			-60.00		8.0530E-03
			-30.00		10.012E-03
			30.00		9.7954E-03
			60.00		8.1610E-03
		END_DATA
	END_SCAN  9
	BEGIN_SCAN  10
		TASK_NAME=MODE_INTERVAL
		PROGRAM=BeamAdjust 1.2
		MEAS_DATE=07-Oct-2010 13:49:01
		LINAC=A4
		MODALITY=X
		INPLANE_AXIS_DIR=TARGET_GUN
		CROSSPLANE_AXIS_DIR=LEFT_RIGHT
		DEPTH_AXIS_DIR=UP_DOWN
		ENERGY=6.00
		SSD=950.00
		WEDGE=None
		FIELD_INPLANE=100.00
		FIELD_CROSSPLANE=100.00
		FIELD_TYPE=RECTANGULAR
		GANTRY=0.00
		GANTRY_UPRIGHT_POSITION=0
		GANTRY_ROTATION=CW
		COLL_ANGLE=90.00
		COLL_OFFSET_INPLANE=0.00
		COLL_OFFSET_CROSSPLANE=0.00
		SCAN_DEVICE=STARCHECK
		ELECTROMETER=2D_ARRAY_INTERFACE
		DETECTOR=STARCHECK
		SCAN_CURVETYPE=INPLANE_PROFILE
		SCAN_DEPTH=0.00
		SCAN_OFFAXIS_CROSSPLANE=-50.00
		SCAN_ANGLE=0.00
		SCAN_DIAGONAL=NOT_DIAGONAL
		MEAS_PRESET=TIME_PRESET
		MEAS_TIME=10.000
		MEAS_UNIT=GY
		PRESSURE=1013.25
		TEMPERATURE=20.00
		NORM_TEMPERATURE=20.00
		CORRECTION_FACTOR=1.0000
		CORRECTIONS=AIR_DENSITY_CORR;
		BEGIN_DATA
			-30.00		152.27E-03
			-15.00		151.61E-03
			15.00		145.37E-03
			30.00		136.66E-03
		END_DATA
	END_SCAN  10
	BEGIN_SCAN  11
		TASK_NAME=MODE_INTERVAL
		PROGRAM=BeamAdjust 1.2
		MEAS_DATE=07-Oct-2010 13:49:01
		LINAC=A4
		MODALITY=X
		INPLANE_AXIS_DIR=TARGET_GUN
		CROSSPLANE_AXIS_DIR=LEFT_RIGHT
		DEPTH_AXIS_DIR=UP_DOWN
		ENERGY=6.00
		SSD=950.00
		WEDGE=None
		FIELD_INPLANE=100.00
		FIELD_CROSSPLANE=100.00
		FIELD_TYPE=RECTANGULAR
		GANTRY=0.00
		GANTRY_UPRIGHT_POSITION=0
		GANTRY_ROTATION=CW
		COLL_ANGLE=90.00
		COLL_OFFSET_INPLANE=0.00
		COLL_OFFSET_CROSSPLANE=0.00
		SCAN_DEVICE=STARCHECK
		ELECTROMETER=2D_ARRAY_INTERFACE
		DETECTOR=STARCHECK
		SCAN_CURVETYPE=INPLANE_PROFILE
		SCAN_DEPTH=0.00
		SCAN_OFFAXIS_CROSSPLANE=0.00
		SCAN_ANGLE=0.00
		SCAN_DIAGONAL=NOT_DIAGONAL
		MEAS_PRESET=TIME_PRESET
		MEAS_TIME=10.000
		MEAS_UNIT=GY
		PRESSURE=1013.25
		TEMPERATURE=20.00
		NORM_TEMPERATURE=20.00
		CORRECTION_FACTOR=1.0000
		CORRECTIONS=AIR_DENSITY_CORR;
		BEGIN_DATA
			-126.00		9.5279E-03
			-123.00		9.0363E-03
			-120.00		10.673E-03
			-117.00		11.842E-03
			-114.00		11.800E-03
			-111.00		13.059E-03
			-108.00		13.552E-03
			-105.00		14.772E-03
			-102.00		16.126E-03
			-99.00		16.471E-03
			-96.00		18.069E-03
			-93.00		20.428E-03
			-90.00		21.945E-03
			-87.00		23.931E-03
			-84.00		25.892E-03
			-81.00		28.572E-03
			-78.00		30.410E-03
			-75.00		32.999E-03
			-72.00		36.744E-03
			-69.00		40.473E-03
			-66.00		45.964E-03
			-63.00		52.633E-03
			-60.00		62.707E-03
			-57.00		83.046E-03
			-54.00		134.93E-03
			-51.00		311.89E-03
			-48.00		558.01E-03
			-45.00		621.32E-03
			-42.00		640.68E-03
			-39.00		649.54E-03
			-36.00		655.05E-03
			-33.00		658.68E-03
			-30.00		662.51E-03
			-27.00		663.76E-03
			-24.00		663.01E-03
			-21.00		661.99E-03
			-18.00		668.66E-03
			-15.00		667.90E-03
			-12.00		669.01E-03
			-9.00		669.09E-03
			-6.00		666.38E-03
			0.00		665.75E-03
			6.00		670.71E-03
			9.00		670.02E-03
			12.00		669.34E-03
			15.00		667.15E-03
			18.00		662.84E-03
			21.00		662.78E-03
			24.00		659.44E-03
			27.00		660.99E-03
			30.00		656.93E-03
			33.00		654.86E-03
			36.00		652.25E-03
			39.00		641.44E-03
			42.00		629.46E-03
			45.00		594.91E-03
			48.00		428.42E-03
			51.00		186.16E-03
			54.00		98.131E-03
			57.00		69.574E-03
			60.00		56.654E-03
			63.00		48.694E-03
			66.00		43.526E-03
			69.00		39.292E-03
			72.00		35.065E-03
			75.00		31.716E-03
			78.00		28.481E-03
			81.00		26.556E-03
			84.00		24.722E-03
			87.00		22.687E-03
			90.00		21.212E-03
			93.00		19.275E-03
			96.00		18.044E-03
			99.00		16.714E-03
			102.00		14.984E-03
			105.00		14.263E-03
			108.00		13.877E-03
			111.00		12.712E-03
			114.00		12.178E-03
			117.00		11.226E-03
			120.00		10.298E-03
			123.00		10.446E-03
			126.00		8.6918E-03
		END_DATA
	END_SCAN  11
	BEGIN_SCAN  12
		TASK_NAME=MODE_INTERVAL
		PROGRAM=BeamAdjust 1.2
		MEAS_DATE=07-Oct-2010 13:49:01
		LINAC=A4
		MODALITY=X
		INPLANE_AXIS_DIR=TARGET_GUN
		CROSSPLANE_AXIS_DIR=LEFT_RIGHT
		DEPTH_AXIS_DIR=UP_DOWN
		ENERGY=6.00
		SSD=950.00
		WEDGE=None
		FIELD_INPLANE=100.00
		FIELD_CROSSPLANE=100.00
		FIELD_TYPE=RECTANGULAR
		GANTRY=0.00
		GANTRY_UPRIGHT_POSITION=0
		GANTRY_ROTATION=CW
		COLL_ANGLE=90.00
		COLL_OFFSET_INPLANE=0.00
		COLL_OFFSET_CROSSPLANE=0.00
		SCAN_DEVICE=STARCHECK
		ELECTROMETER=2D_ARRAY_INTERFACE
		DETECTOR=STARCHECK
		SCAN_CURVETYPE=INPLANE_PROFILE
		SCAN_DEPTH=0.00
		SCAN_OFFAXIS_CROSSPLANE=50.00
		SCAN_ANGLE=0.00
		SCAN_DIAGONAL=NOT_DIAGONAL
		MEAS_PRESET=TIME_PRESET
		MEAS_TIME=10.000
		MEAS_UNIT=GY
		PRESSURE=1013.25
		TEMPERATURE=20.00
		NORM_TEMPERATURE=20.00
		CORRECTION_FACTOR=1.0000
		CORRECTIONS=AIR_DENSITY_CORR;
		BEGIN_DATA
			-30.00		564.43E-03
			-15.00		571.51E-03
			15.00		574.54E-03
			30.00		573.66E-03
		END_DATA
	END_SCAN  12
	BEGIN_SCAN  13
		TASK_NAME=MODE_INTERVAL
		PROGRAM=BeamAdjust 1.2
		MEAS_DATE=07-Oct-2010 13:49:01
		LINAC=A4
		MODALITY=X
		INPLANE_AXIS_DIR=TARGET_GUN
		CROSSPLANE_AXIS_DIR=LEFT_RIGHT
		DEPTH_AXIS_DIR=UP_DOWN
		ENERGY=6.00
		SSD=950.00
		WEDGE=None
		FIELD_INPLANE=100.00
		FIELD_CROSSPLANE=100.00
		FIELD_TYPE=RECTANGULAR
		GANTRY=0.00
		GANTRY_UPRIGHT_POSITION=0
		GANTRY_ROTATION=CW
		COLL_ANGLE=90.00
		COLL_OFFSET_INPLANE=0.00
		COLL_OFFSET_CROSSPLANE=0.00
		SCAN_DEVICE=STARCHECK
		ELECTROMETER=2D_ARRAY_INTERFACE
		DETECTOR=STARCHECK
		SCAN_CURVETYPE=INPLANE_PROFILE
		SCAN_DEPTH=0.00
		SCAN_OFFAXIS_CROSSPLANE=100.00
		SCAN_ANGLE=0.00
		SCAN_DIAGONAL=NOT_DIAGONAL
		MEAS_PRESET=TIME_PRESET
		MEAS_TIME=10.000
		MEAS_UNIT=GY
		PRESSURE=1013.25
		TEMPERATURE=20.00
		NORM_TEMPERATURE=20.00
		CORRECTION_FACTOR=1.0000
		CORRECTIONS=AIR_DENSITY_CORR;
		BEGIN_DATA
			-60.00		8.9495E-03
			-30.00		11.632E-03
			30.00		11.419E-03
			60.00		7.9579E-03
		END_DATA
	END_SCAN  13
	BEGIN_SCAN  14
		TASK_NAME=MODE_INTERVAL
		PROGRAM=BeamAdjust 1.2
		MEAS_DATE=07-Oct-2010 13:49:01
		LINAC=A4
		MODALITY=X
		INPLANE_AXIS_DIR=TARGET_GUN
		CROSSPLANE_AXIS_DIR=LEFT_RIGHT
		DEPTH_AXIS_DIR=UP_DOWN
		ENERGY=6.00
		SSD=950.00
		WEDGE=None
		FIELD_INPLANE=100.00
		FIELD_CROSSPLANE=100.00
		FIELD_TYPE=RECTANGULAR
		GANTRY=0.00
		GANTRY_UPRIGHT_POSITION=0
		GANTRY_ROTATION=CW
		COLL_ANGLE=90.00
		COLL_OFFSET_INPLANE=0.00
		COLL_OFFSET_CROSSPLANE=0.00
		SCAN_DEVICE=STARCHECK
		ELECTROMETER=2D_ARRAY_INTERFACE
		DETECTOR=STARCHECK
		SCAN_CURVETYPE=INPLANE_PROFILE
		SCAN_DEPTH=0.00
		SCAN_OFFAXIS_CROSSPLANE=130.00
		SCAN_ANGLE=0.00
		SCAN_DIAGONAL=NOT_DIAGONAL
		MEAS_PRESET=TIME_PRESET
		MEAS_TIME=10.000
		MEAS_UNIT=GY
		PRESSURE=1013.25
		TEMPERATURE=20.00
		NORM_TEMPERATURE=20.00
		CORRECTION_FACTOR=1.0000
		CORRECTIONS=AIR_DENSITY_CORR;
		BEGIN_DATA
			-130.00		2.1828E-03
			-125.00		3.0152E-03
			-120.00		2.7638E-03
			-115.00		2.8160E-03
			-110.00		3.0308E-03
			-105.00		2.6076E-03
			-100.00		3.1769E-03
			-95.00		3.3835E-03
			-90.00		3.6640E-03
			-85.00		4.3296E-03
			-80.00		3.8568E-03
			-75.00		4.0060E-03
			-70.00		4.2565E-03
			-65.00		4.4041E-03
			-60.00		5.4708E-03
			-55.00		4.9421E-03
			-50.00		4.9206E-03
			-45.00		5.2064E-03
			-40.00		5.0708E-03
			-35.00		5.5702E-03
			-30.00		5.8665E-03
			-25.00		5.4909E-03
			-20.00		6.6002E-03
			-15.00		5.7281E-03
			-10.00		5.4354E-03
			-5.00		6.3864E-03
			0.00		6.6622E-03
			5.00		6.5408E-03
			10.00		6.1323E-03
			15.00		6.0843E-03
			20.00		5.8944E-03
			25.00		5.5785E-03
			30.00		5.3325E-03
			35.00		5.1295E-03
			40.00		5.6887E-03
			45.00		5.3531E-03
			50.00		5.4695E-03
			55.00		5.4562E-03
			60.00		5.1107E-03
			65.00		4.4827E-03
			70.00		4.3689E-03
			75.00		4.2519E-03
			80.00		4.0273E-03
			85.00		4.0503E-03
			90.00		3.3178E-03
			95.00		3.5270E-03
			100.00		3.8022E-03
			105.00		2.6247E-03
			110.00		2.7684E-03
			115.00		3.0968E-03
			120.00		3.0191E-03
			125.00		2.4630E-03
			130.00		2.8281E-03
		END_DATA
	END_SCAN  14
	BEGIN_SCAN  15
		TASK_NAME=MODE_INTERVAL
		PROGRAM=BeamAdjust 1.2
		MEAS_DATE=07-Oct-2010 13:49:01
		LINAC=A4
		MODALITY=X
		INPLANE_AXIS_DIR=TARGET_GUN
		CROSSPLANE_AXIS_DIR=LEFT_RIGHT
		DEPTH_AXIS_DIR=UP_DOWN
		ENERGY=6.00
		SSD=950.00
		WEDGE=None
		FIELD_INPLANE=100.00
		FIELD_CROSSPLANE=100.00
		FIELD_TYPE=RECTANGULAR
		GANTRY=0.00
		GANTRY_UPRIGHT_POSITION=0
		GANTRY_ROTATION=CW
		COLL_ANGLE=90.00
		COLL_OFFSET_INPLANE=0.00
		COLL_OFFSET_CROSSPLANE=0.00
		SCAN_DEVICE=STARCHECK
		ELECTROMETER=2D_ARRAY_INTERFACE
		DETECTOR=STARCHECK
		SCAN_CURVETYPE=INPLANE_PROFILE
		SCAN_DEPTH=0.00
		SCAN_OFFAXIS_CROSSPLANE=0.00
		SCAN_ANGLE=0.00
		SCAN_DIAGONAL=FIRST_DIAGONAL
		MEAS_PRESET=TIME_PRESET
		MEAS_TIME=10.000
		MEAS_UNIT=GY
		PRESSURE=1013.25
		TEMPERATURE=20.00
		NORM_TEMPERATURE=20.00
		CORRECTION_FACTOR=1.0000
		CORRECTIONS=AIR_DENSITY_CORR;
		BEGIN_DATA
			-172.40		2.8137E-03
			-169.40		3.2692E-03
			-166.40		3.9668E-03
			-163.40		3.4478E-03
			-160.40		3.7207E-03
			-157.40		3.6580E-03
			-154.40		3.9017E-03
			-151.40		4.0298E-03
			-148.40		4.6338E-03
			-145.40		5.3282E-03
			-142.40		5.5632E-03
			-139.40		6.0975E-03
			-136.40		6.0378E-03
			-133.40		6.7758E-03
			-130.40		7.0370E-03
			-127.40		7.3912E-03
			-124.40		7.4895E-03
			-121.40		8.5037E-03
			-118.40		9.4198E-03
			-115.40		10.179E-03
			-112.40		11.069E-03
			-109.40		11.909E-03
			-106.40		13.118E-03
			-103.40		13.415E-03
			-100.40		14.568E-03
			-97.40		17.666E-03
			-94.40		18.572E-03
			-91.40		20.403E-03
			-88.40		22.947E-03
			-85.40		24.961E-03
			-82.40		28.833E-03
			-79.40		33.191E-03
			-76.40		40.303E-03
			-73.40		56.485E-03
			-70.40		106.46E-03
			-67.40		262.35E-03
			-64.40		449.13E-03
			-61.40		561.99E-03
			-58.40		606.07E-03
			-55.40		626.16E-03
			-52.40		635.85E-03
			-49.40		642.28E-03
			-46.40		645.93E-03
			-43.40		649.13E-03
			-40.40		652.58E-03
			-37.40		657.63E-03
			-34.40		657.30E-03
			-31.40		659.47E-03
			-28.40		658.62E-03
			-25.40		661.37E-03
			-22.40		661.74E-03
			-19.40		662.02E-03
			-16.40		665.52E-03
			-13.40		669.40E-03
			0.00		665.75E-03
			13.40		671.57E-03
			16.40		666.75E-03
			19.40		666.35E-03
			22.40		665.04E-03
			25.40		664.09E-03
			28.40		663.42E-03
			31.40		661.19E-03
			34.40		658.23E-03
			37.40		661.07E-03
			40.40		658.26E-03
			43.40		655.47E-03
			46.40		653.90E-03
			49.40		648.34E-03
			52.40		644.57E-03
			55.40		633.61E-03
			58.40		621.43E-03
			61.40		595.32E-03
			64.40		520.95E-03
			67.40		383.29E-03
			70.40		216.77E-03
			73.40		96.396E-03
			76.40		54.763E-03
			79.40		41.166E-03
			82.40		33.707E-03
			85.40		28.795E-03
			88.40		26.292E-03
			91.40		22.748E-03
			94.40		21.352E-03
			97.40		18.722E-03
			100.40		16.832E-03
			103.40		15.666E-03
			106.40		14.370E-03
			109.40		13.066E-03
			112.40		11.586E-03
			115.40		10.799E-03
			118.40		9.7106E-03
			121.40		9.0677E-03
			124.40		8.6154E-03
			127.40		8.3043E-03
			130.40		7.7143E-03
			133.40		6.5721E-03
			136.40		6.3297E-03
			139.40		5.6126E-03
			142.40		5.4627E-03
			145.40		5.3612E-03
			148.40		5.2185E-03
			151.40		4.7299E-03
			154.40		4.6726E-03
			157.40		4.1236E-03
			160.40		3.3344E-03
			163.40		3.4566E-03
			166.40		3.4210E-03
			169.40		3.1894E-03
			172.40		3.2727E-03
		END_DATA
	END_SCAN  15
	BEGIN_SCAN  16
		TASK_NAME=MODE_INTERVAL
		PROGRAM=BeamAdjust 1.2
		MEAS_DATE=07-Oct-2010 13:49:01
		LINAC=A4
		MODALITY=X
		INPLANE_AXIS_DIR=GUN_TARGET
		CROSSPLANE_AXIS_DIR=LEFT_RIGHT
		DEPTH_AXIS_DIR=UP_DOWN
		ENERGY=6.00
		SSD=950.00
		WEDGE=None
		FIELD_INPLANE=100.00
		FIELD_CROSSPLANE=100.00
		FIELD_TYPE=RECTANGULAR
		GANTRY=0.00
		GANTRY_UPRIGHT_POSITION=0
		GANTRY_ROTATION=CW
		COLL_ANGLE=90.00
		COLL_OFFSET_INPLANE=0.00
		COLL_OFFSET_CROSSPLANE=0.00
		SCAN_DEVICE=STARCHECK
		ELECTROMETER=2D_ARRAY_INTERFACE
		DETECTOR=STARCHECK
		SCAN_CURVETYPE=INPLANE_PROFILE
		SCAN_DEPTH=0.00
		SCAN_OFFAXIS_CROSSPLANE=0.00
		SCAN_ANGLE=0.00
		SCAN_DIAGONAL=SECOND_DIAGONAL
		MEAS_PRESET=TIME_PRESET
		MEAS_TIME=10.000
		MEAS_UNIT=GY
		PRESSURE=1013.25
		TEMPERATURE=20.00
		NORM_TEMPERATURE=20.00
		CORRECTION_FACTOR=1.0000
		CORRECTIONS=AIR_DENSITY_CORR;
		BEGIN_DATA
			-172.40		2.9217E-03
			-169.40		3.9507E-03
			-166.40		3.5834E-03
			-163.40		3.3001E-03
			-160.40		3.8898E-03
			-157.40		3.7727E-03
			-154.40		4.3458E-03
			-151.40		4.6935E-03
			-148.40		4.8609E-03
			-145.40		5.3103E-03
			-142.40		5.7217E-03
			-139.40		5.6686E-03
			-136.40		6.1364E-03
			-133.40		7.0611E-03
			-130.40		7.6052E-03
			-127.40		8.6226E-03
			-124.40		8.9468E-03
			-121.40		9.6010E-03
			-118.40		10.090E-03
			-115.40		10.712E-03
			-112.40		11.726E-03
			-109.40		13.005E-03
			-106.40		14.557E-03
			-103.40		15.650E-03
			-100.40		17.595E-03
			-97.40		19.106E-03
			-94.40		20.611E-03
			-91.40		23.401E-03
			-88.40		25.839E-03
			-85.40		29.986E-03
			-82.40		34.827E-03
			-79.40		44.320E-03
			-76.40		64.279E-03
			-73.40		136.02E-03
			-70.40		319.77E-03
			-67.40		496.96E-03
			-64.40		585.12E-03
			-61.40		617.84E-03
			-58.40		635.07E-03
			-55.40		641.97E-03
			-52.40		650.96E-03
			-49.40		654.67E-03
			-46.40		656.89E-03
			-43.40		660.27E-03
			-40.40		662.10E-03
			-37.40		664.76E-03
			-34.40		664.13E-03
			-31.40		664.79E-03
			-28.40		667.04E-03
			-25.40		665.68E-03
			-22.40		663.90E-03
			-19.40		668.07E-03
			-16.40		669.68E-03
			-13.40		671.69E-03
			0.00		665.75E-03
			13.40		669.34E-03
			16.40		666.28E-03
			19.40		663.55E-03
			22.40		661.65E-03
			25.40		660.73E-03
			28.40		659.42E-03
			31.40		657.50E-03
			34.40		654.83E-03
			37.40		653.64E-03
			40.40		651.85E-03
			43.40		649.40E-03
			46.40		646.42E-03
			49.40		641.28E-03
			52.40		631.12E-03
			55.40		618.44E-03
			58.40		596.90E-03
			61.40		536.02E-03
			64.40		382.31E-03
			67.40		178.10E-03
			70.40		76.896E-03
			73.40		48.277E-03
			76.40		37.202E-03
			79.40		30.828E-03
			82.40		27.571E-03
			85.40		24.542E-03
			88.40		22.339E-03
			91.40		20.258E-03
			94.40		18.158E-03
			97.40		16.760E-03
			100.40		14.329E-03
			103.40		13.296E-03
			106.40		13.077E-03
			109.40		11.454E-03
			112.40		10.582E-03
			115.40		9.8002E-03
			118.40		9.1847E-03
			121.40		7.8943E-03
			124.40		7.6129E-03
			127.40		7.1575E-03
			130.40		7.0217E-03
			133.40		6.6760E-03
			136.40		5.7824E-03
			139.40		5.9357E-03
			142.40		5.6235E-03
			145.40		5.1837E-03
			148.40		5.1568E-03
			151.40		4.2619E-03
			154.40		4.1025E-03
			157.40		3.9735E-03
			160.40		3.6339E-03
			163.40		4.0116E-03
			166.40		3.6216E-03
			169.40		2.8359E-03
			172.40		2.9516E-03
		END_DATA
	END_SCAN  16
END_SCAN_DATA
