BEGIN_SCAN_DATA
	FORMAT=CC-Export V1.9                  
	FILE_CREATION_DATE=07-Oct-2010 13:48:23
	LAST_MODIFIED=07-Oct-2010 13:48:23
	BEGIN_SCAN  1
		TASK_NAME=MODE_INTERVAL
		PROGRAM=BeamAdjust 1.2
		MEAS_DATE=07-Oct-2010 13:48:23
		LINAC=A4
		MODALITY=X
		INPLANE_AXIS_DIR=TARGET_GUN
		CROSSPLANE_AXIS_DIR=LEFT_RIGHT
		DEPTH_AXIS_DIR=UP_DOWN
		ENERGY=6.00
		SSD=950.00
		WEDGE=None
		FIELD_INPLANE=100.00
		FIELD_CROSSPLANE=100.00
		FIELD_TYPE=RECTANGULAR
		GANTRY=0.00
		GANTRY_UPRIGHT_POSITION=0
		GANTRY_ROTATION=CW
		COLL_ANGLE=90.00
		COLL_OFFSET_INPLANE=0.00
		COLL_OFFSET_CROSSPLANE=0.00
		SCAN_DEVICE=STARCHECK
		ELECTROMETER=2D_ARRAY_INTERFACE
		DETECTOR=STARCHECK
		SCAN_CURVETYPE=CROSSPLANE_PROFILE
		SCAN_DEPTH=0.00
		SCAN_OFFAXIS_INPLANE=-130.00
		SCAN_ANGLE=0.00
		SCAN_DIAGONAL=NOT_DIAGONAL
		MEAS_PRESET=TIME_PRESET
		MEAS_TIME=10.000
		MEAS_UNIT=GY
		PRESSURE=1013.25
		TEMPERATURE=20.00
		NORM_TEMPERATURE=20.00
		CORRECTION_FACTOR=1.0000
		CORRECTIONS=AIR_DENSITY_CORR;
		BEGIN_DATA
			-130.00		2.1792E-03
			-80.00		4.3330E-03
			-40.00		7.1964E-03
			40.00		7.0997E-03
			80.00		4.3856E-03
			130.00		2.2756E-03
		END_DATA
	END_SCAN  1
	BEGIN_SCAN  2
		TASK_NAME=MODE_INTERVAL
		PROGRAM=BeamAdjust 1.2
		MEAS_DATE=07-Oct-2010 13:48:23
		LINAC=A4
		MODALITY=X
		INPLANE_AXIS_DIR=TARGET_GUN
		CROSSPLANE_AXIS_DIR=LEFT_RIGHT
		DEPTH_AXIS_DIR=UP_DOWN
		ENERGY=6.00
		SSD=950.00
		WEDGE=None
		FIELD_INPLANE=100.00
		FIELD_CROSSPLANE=100.00
		FIELD_TYPE=RECTANGULAR
		GANTRY=0.00
		GANTRY_UPRIGHT_POSITION=0
		GANTRY_ROTATION=CW
		COLL_ANGLE=90.00
		COLL_OFFSET_INPLANE=0.00
		COLL_OFFSET_CROSSPLANE=0.00
		SCAN_DEVICE=STARCHECK
		ELECTROMETER=2D_ARRAY_INTERFACE
		DETECTOR=STARCHECK
		SCAN_CURVETYPE=CROSSPLANE_PROFILE
		SCAN_DEPTH=0.00
		SCAN_OFFAXIS_INPLANE=-100.00
		SCAN_ANGLE=0.00
		SCAN_DIAGONAL=NOT_DIAGONAL
		MEAS_PRESET=TIME_PRESET
		MEAS_TIME=10.000
		MEAS_UNIT=GY
		PRESSURE=1013.25
		TEMPERATURE=20.00
		NORM_TEMPERATURE=20.00
		CORRECTION_FACTOR=1.0000
		CORRECTIONS=AIR_DENSITY_CORR;
		BEGIN_DATA
			-60.00		10.101E-03
			-30.00		14.253E-03
			30.00		15.349E-03
			60.00		10.892E-03
		END_DATA
	END_SCAN  2
	BEGIN_SCAN  3
		TASK_NAME=MODE_INTERVAL
		PROGRAM=BeamAdjust 1.2
		MEAS_DATE=07-Oct-2010 13:48:23
		LINAC=A4
		MODALITY=X
		INPLANE_AXIS_DIR=TARGET_GUN
		CROSSPLANE_AXIS_DIR=LEFT_RIGHT
		DEPTH_AXIS_DIR=UP_DOWN
		ENERGY=6.00
		SSD=950.00
		WEDGE=None
		FIELD_INPLANE=100.00
		FIELD_CROSSPLANE=100.00
		FIELD_TYPE=RECTANGULAR
		GANTRY=0.00
		GANTRY_UPRIGHT_POSITION=0
		GANTRY_ROTATION=CW
		COLL_ANGLE=90.00
		COLL_OFFSET_INPLANE=0.00
		COLL_OFFSET_CROSSPLANE=0.00
		SCAN_DEVICE=STARCHECK
		ELECTROMETER=2D_ARRAY_INTERFACE
		DETECTOR=STARCHECK
		SCAN_CURVETYPE=CROSSPLANE_PROFILE
		SCAN_DEPTH=0.00
		SCAN_OFFAXIS_INPLANE=-50.00
		SCAN_ANGLE=0.00
		SCAN_DIAGONAL=NOT_DIAGONAL
		MEAS_PRESET=TIME_PRESET
		MEAS_TIME=10.000
		MEAS_UNIT=GY
		PRESSURE=1013.25
		TEMPERATURE=20.00
		NORM_TEMPERATURE=20.00
		CORRECTION_FACTOR=1.0000
		CORRECTIONS=AIR_DENSITY_CORR;
		BEGIN_DATA
			-30.00		389.16E-03
			-15.00		366.40E-03
			15.00		387.92E-03
			30.00		394.75E-03
		END_DATA
	END_SCAN  3
	BEGIN_SCAN  4
		TASK_NAME=MODE_INTERVAL
		PROGRAM=BeamAdjust 1.2
		MEAS_DATE=07-Oct-2010 13:48:23
		LINAC=A4
		MODALITY=X
		INPLANE_AXIS_DIR=TARGET_GUN
		CROSSPLANE_AXIS_DIR=LEFT_RIGHT
		DEPTH_AXIS_DIR=UP_DOWN
		ENERGY=6.00
		SSD=950.00
		WEDGE=None
		FIELD_INPLANE=100.00
		FIELD_CROSSPLANE=100.00
		FIELD_TYPE=RECTANGULAR
		GANTRY=0.00
		GANTRY_UPRIGHT_POSITION=0
		GANTRY_ROTATION=CW
		COLL_ANGLE=90.00
		COLL_OFFSET_INPLANE=0.00
		COLL_OFFSET_CROSSPLANE=0.00
		SCAN_DEVICE=STARCHECK
		ELECTROMETER=2D_ARRAY_INTERFACE
		DETECTOR=STARCHECK
		SCAN_CURVETYPE=CROSSPLANE_PROFILE
		SCAN_DEPTH=0.00
		SCAN_OFFAXIS_INPLANE=0.00
		SCAN_ANGLE=0.00
		SCAN_DIAGONAL=NOT_DIAGONAL
		MEAS_PRESET=TIME_PRESET
		MEAS_TIME=10.000
		MEAS_UNIT=GY
		PRESSURE=1013.25
		TEMPERATURE=20.00
		NORM_TEMPERATURE=20.00
		CORRECTION_FACTOR=1.0000
		CORRECTIONS=AIR_DENSITY_CORR;
		BEGIN_DATA
			-126.00		6.3290E-03
			-123.00		7.1352E-03
			-120.00		7.6370E-03
			-117.00		8.3021E-03
			-114.00		8.3853E-03
			-111.00		8.8930E-03
			-108.00		9.9919E-03
			-105.00		10.336E-03
			-102.00		11.112E-03
			-99.00		12.785E-03
			-96.00		13.203E-03
			-93.00		14.522E-03
			-90.00		15.189E-03
			-87.00		16.879E-03
			-84.00		18.568E-03
			-81.00		20.191E-03
			-78.00		21.752E-03
			-75.00		24.524E-03
			-72.00		26.532E-03
			-69.00		30.019E-03
			-66.00		34.586E-03
			-63.00		38.526E-03
			-60.00		44.336E-03
			-57.00		54.364E-03
			-54.00		69.760E-03
			-51.00		108.00E-03
			-48.00		255.76E-03
			-45.00		535.05E-03
			-42.00		612.35E-03
			-39.00		638.18E-03
			-36.00		648.98E-03
			-33.00		651.56E-03
			-30.00		654.22E-03
			-27.00		658.02E-03
			-24.00		661.07E-03
			-21.00		660.78E-03
			-18.00		665.90E-03
			-15.00		666.49E-03
			-12.00		666.62E-03
			-9.00		670.49E-03
			-6.00		669.97E-03
			0.00		667.76E-03
			6.00		670.42E-03
			9.00		669.99E-03
			12.00		668.57E-03
			15.00		669.16E-03
			18.00		668.04E-03
			21.00		665.71E-03
			24.00		662.25E-03
			27.00		666.60E-03
			30.00		665.41E-03
			33.00		663.93E-03
			36.00		662.18E-03
			39.00		658.39E-03
			42.00		652.66E-03
			45.00		642.64E-03
			48.00		619.31E-03
			51.00		546.34E-03
			54.00		268.97E-03
			57.00		109.60E-03
			60.00		71.183E-03
			63.00		55.117E-03
			66.00		45.125E-03
			69.00		38.660E-03
			72.00		34.334E-03
			75.00		30.362E-03
			78.00		27.224E-03
			81.00		24.318E-03
			84.00		22.265E-03
			87.00		20.107E-03
			90.00		18.546E-03
			93.00		16.500E-03
			96.00		14.705E-03
			99.00		14.175E-03
			102.00		12.923E-03
			105.00		11.708E-03
			108.00		11.445E-03
			111.00		9.8623E-03
			114.00		9.6914E-03
			117.00		8.6364E-03
			120.00		8.0445E-03
			123.00		7.5638E-03
			126.00		7.6406E-03
		END_DATA
	END_SCAN  4
	BEGIN_SCAN  5
		TASK_NAME=MODE_INTERVAL
		PROGRAM=BeamAdjust 1.2
		MEAS_DATE=07-Oct-2010 13:48:23
		LINAC=A4
		MODALITY=X
		INPLANE_AXIS_DIR=TARGET_GUN
		CROSSPLANE_AXIS_DIR=LEFT_RIGHT
		DEPTH_AXIS_DIR=UP_DOWN
		ENERGY=6.00
		SSD=950.00
		WEDGE=None
		FIELD_INPLANE=100.00
		FIELD_CROSSPLANE=100.00
		FIELD_TYPE=RECTANGULAR
		GANTRY=0.00
		GANTRY_UPRIGHT_POSITION=0
		GANTRY_ROTATION=CW
		COLL_ANGLE=90.00
		COLL_OFFSET_INPLANE=0.00
		COLL_OFFSET_CROSSPLANE=0.00
		SCAN_DEVICE=STARCHECK
		ELECTROMETER=2D_ARRAY_INTERFACE
		DETECTOR=STARCHECK
		SCAN_CURVETYPE=CROSSPLANE_PROFILE
		SCAN_DEPTH=0.00
		SCAN_OFFAXIS_INPLANE=50.00
		SCAN_ANGLE=0.00
		SCAN_DIAGONAL=NOT_DIAGONAL
		MEAS_PRESET=TIME_PRESET
		MEAS_TIME=10.000
		MEAS_UNIT=GY
		PRESSURE=1013.25
		TEMPERATURE=20.00
		NORM_TEMPERATURE=20.00
		CORRECTION_FACTOR=1.0000
		CORRECTIONS=AIR_DENSITY_CORR;
		BEGIN_DATA
			-30.00		264.15E-03
			-15.00		286.34E-03
			15.00		262.01E-03
			30.00		258.25E-03
		END_DATA
	END_SCAN  5
	BEGIN_SCAN  6
		TASK_NAME=MODE_INTERVAL
		PROGRAM=BeamAdjust 1.2
		MEAS_DATE=07-Oct-2010 13:48:23
		LINAC=A4
		MODALITY=X
		INPLANE_AXIS_DIR=TARGET_GUN
		CROSSPLANE_AXIS_DIR=LEFT_RIGHT
		DEPTH_AXIS_DIR=UP_DOWN
		ENERGY=6.00
		SSD=950.00
		WEDGE=None
		FIELD_INPLANE=100.00
		FIELD_CROSSPLANE=100.00
		FIELD_TYPE=RECTANGULAR
		GANTRY=0.00
		GANTRY_UPRIGHT_POSITION=0
		GANTRY_ROTATION=CW
		COLL_ANGLE=90.00
		COLL_OFFSET_INPLANE=0.00
		COLL_OFFSET_CROSSPLANE=0.00
		SCAN_DEVICE=STARCHECK
		ELECTROMETER=2D_ARRAY_INTERFACE
		DETECTOR=STARCHECK
		SCAN_CURVETYPE=CROSSPLANE_PROFILE
		SCAN_DEPTH=0.00
		SCAN_OFFAXIS_INPLANE=100.00
		SCAN_ANGLE=0.00
		SCAN_DIAGONAL=NOT_DIAGONAL
		MEAS_PRESET=TIME_PRESET
		MEAS_TIME=10.000
		MEAS_UNIT=GY
		PRESSURE=1013.25
		TEMPERATURE=20.00
		NORM_TEMPERATURE=20.00
		CORRECTION_FACTOR=1.0000
		CORRECTIONS=AIR_DENSITY_CORR;
		BEGIN_DATA
			-60.00		9.6601E-03
			-30.00		15.562E-03
			30.00		15.079E-03
			60.00		9.9180E-03
		END_DATA
	END_SCAN  6
	BEGIN_SCAN  7
		TASK_NAME=MODE_INTERVAL
		PROGRAM=BeamAdjust 1.2
		MEAS_DATE=07-Oct-2010 13:48:23
		LINAC=A4
		MODALITY=X
		INPLANE_AXIS_DIR=TARGET_GUN
		CROSSPLANE_AXIS_DIR=LEFT_RIGHT
		DEPTH_AXIS_DIR=UP_DOWN
		ENERGY=6.00
		SSD=950.00
		WEDGE=None
		FIELD_INPLANE=100.00
		FIELD_CROSSPLANE=100.00
		FIELD_TYPE=RECTANGULAR
		GANTRY=0.00
		GANTRY_UPRIGHT_POSITION=0
		GANTRY_ROTATION=CW
		COLL_ANGLE=90.00
		COLL_OFFSET_INPLANE=0.00
		COLL_OFFSET_CROSSPLANE=0.00
		SCAN_DEVICE=STARCHECK
		ELECTROMETER=2D_ARRAY_INTERFACE
		DETECTOR=STARCHECK
		SCAN_CURVETYPE=CROSSPLANE_PROFILE
		SCAN_DEPTH=0.00
		SCAN_OFFAXIS_INPLANE=130.00
		SCAN_ANGLE=0.00
		SCAN_DIAGONAL=NOT_DIAGONAL
		MEAS_PRESET=TIME_PRESET
		MEAS_TIME=10.000
		MEAS_UNIT=GY
		PRESSURE=1013.25
		TEMPERATURE=20.00
		NORM_TEMPERATURE=20.00
		CORRECTION_FACTOR=1.0000
		CORRECTIONS=AIR_DENSITY_CORR;
		BEGIN_DATA
			-130.00		2.0863E-03
			-80.00		4.0467E-03
			-40.00		7.3869E-03
			40.00		7.4177E-03
			80.00		4.8227E-03
			130.00		2.4970E-03
		END_DATA
	END_SCAN  7
	BEGIN_SCAN  8
		TASK_NAME=MODE_INTERVAL
		PROGRAM=BeamAdjust 1.2
		MEAS_DATE=07-Oct-2010 13:48:23
		LINAC=A4
		MODALITY=X
		INPLANE_AXIS_DIR=TARGET_GUN
		CROSSPLANE_AXIS_DIR=LEFT_RIGHT
		DEPTH_AXIS_DIR=UP_DOWN
		ENERGY=6.00
		SSD=950.00
		WEDGE=None
		FIELD_INPLANE=100.00
		FIELD_CROSSPLANE=100.00
		FIELD_TYPE=RECTANGULAR
		GANTRY=0.00
		GANTRY_UPRIGHT_POSITION=0
		GANTRY_ROTATION=CW
		COLL_ANGLE=90.00
		COLL_OFFSET_INPLANE=0.00
		COLL_OFFSET_CROSSPLANE=0.00
		SCAN_DEVICE=STARCHECK
		ELECTROMETER=2D_ARRAY_INTERFACE
		DETECTOR=STARCHECK
		SCAN_CURVETYPE=INPLANE_PROFILE
		SCAN_DEPTH=0.00
		SCAN_OFFAXIS_CROSSPLANE=-130.00
		SCAN_ANGLE=0.00
		SCAN_DIAGONAL=NOT_DIAGONAL
		MEAS_PRESET=TIME_PRESET
		MEAS_TIME=10.000
		MEAS_UNIT=GY
		PRESSURE=1013.25
		TEMPERATURE=20.00
		NORM_TEMPERATURE=20.00
		CORRECTION_FACTOR=1.0000
		CORRECTIONS=AIR_DENSITY_CORR;
		BEGIN_DATA
			-130.00		2.1792E-03
			-125.00		2.6416E-03
			-120.00		2.8977E-03
			-115.00		3.3731E-03
			-110.00		3.3959E-03
			-105.00		3.4386E-03
			-100.00		3.9915E-03
			-95.00		4.5060E-03
			-90.00		4.2247E-03
			-85.00		4.1208E-03
			-80.00		4.3484E-03
			-75.00		4.9733E-03
			-70.00		5.1165E-03
			-65.00		4.8600E-03
			-60.00		5.1042E-03
			-55.00		5.8191E-03
			-50.00		4.7458E-03
			-45.00		4.8541E-03
			-40.00		5.2284E-03
			-35.00		5.1231E-03
			-30.00		5.2224E-03
			-25.00		5.1312E-03
			-20.00		5.1951E-03
			-15.00		4.6540E-03
			-10.00		4.8790E-03
			-5.00		6.0212E-03
			0.00		6.0849E-03
			5.00		6.3052E-03
			10.00		5.4670E-03
			15.00		5.1190E-03
			20.00		5.7188E-03
			25.00		5.3322E-03
			30.00		6.0216E-03
			35.00		5.1053E-03
			40.00		4.7896E-03
			45.00		5.0304E-03
			50.00		5.2125E-03
			55.00		4.6177E-03
			60.00		4.4232E-03
			65.00		4.0756E-03
			70.00		4.1306E-03
			75.00		4.3077E-03
			80.00		3.5671E-03
			85.00		3.6411E-03
			90.00		3.4683E-03
			95.00		3.5481E-03
			100.00		3.7734E-03
			105.00		2.6281E-03
			110.00		2.7841E-03
			115.00		2.5193E-03
			120.00		2.9467E-03
			125.00		2.5426E-03
			130.00		2.0863E-03
		END_DATA
	END_SCAN  8
	BEGIN_SCAN  9
		TASK_NAME=MODE_INTERVAL
		PROGRAM=BeamAdjust 1.2
		MEAS_DATE=07-Oct-2010 13:48:23
		LINAC=A4
		MODALITY=X
		INPLANE_AXIS_DIR=TARGET_GUN
		CROSSPLANE_AXIS_DIR=LEFT_RIGHT
		DEPTH_AXIS_DIR=UP_DOWN
		ENERGY=6.00
		SSD=950.00
		WEDGE=None
		FIELD_INPLANE=100.00
		FIELD_CROSSPLANE=100.00
		FIELD_TYPE=RECTANGULAR
		GANTRY=0.00
		GANTRY_UPRIGHT_POSITION=0
		GANTRY_ROTATION=CW
		COLL_ANGLE=90.00
		COLL_OFFSET_INPLANE=0.00
		COLL_OFFSET_CROSSPLANE=0.00
		SCAN_DEVICE=STARCHECK
		ELECTROMETER=2D_ARRAY_INTERFACE
		DETECTOR=STARCHECK
		SCAN_CURVETYPE=INPLANE_PROFILE
		SCAN_DEPTH=0.00
		SCAN_OFFAXIS_CROSSPLANE=-100.00
		SCAN_ANGLE=0.00
		SCAN_DIAGONAL=NOT_DIAGONAL
		MEAS_PRESET=TIME_PRESET
		MEAS_TIME=10.000
		MEAS_UNIT=GY
		PRESSURE=1013.25
		TEMPERATURE=20.00
		NORM_TEMPERATURE=20.00
		CORRECTION_FACTOR=1.0000
		CORRECTIONS=AIR_DENSITY_CORR;
		BEGIN_DATA
			-60.00		8.0500E-03
			-30.00		10.100E-03
			30.00		9.4839E-03
			60.00		7.6537E-03
		END_DATA
	END_SCAN  9
	BEGIN_SCAN  10
		TASK_NAME=MODE_INTERVAL
		PROGRAM=BeamAdjust 1.2
		MEAS_DATE=07-Oct-2010 13:48:23
		LINAC=A4
		MODALITY=X
		INPLANE_AXIS_DIR=TARGET_GUN
		CROSSPLANE_AXIS_DIR=LEFT_RIGHT
		DEPTH_AXIS_DIR=UP_DOWN
		ENERGY=6.00
		SSD=950.00
		WEDGE=None
		FIELD_INPLANE=100.00
		FIELD_CROSSPLANE=100.00
		FIELD_TYPE=RECTANGULAR
		GANTRY=0.00
		GANTRY_UPRIGHT_POSITION=0
		GANTRY_ROTATION=CW
		COLL_ANGLE=90.00
		COLL_OFFSET_INPLANE=0.00
		COLL_OFFSET_CROSSPLANE=0.00
		SCAN_DEVICE=STARCHECK
		ELECTROMETER=2D_ARRAY_INTERFACE
		DETECTOR=STARCHECK
		SCAN_CURVETYPE=INPLANE_PROFILE
		SCAN_DEPTH=0.00
		SCAN_OFFAXIS_CROSSPLANE=-50.00
		SCAN_ANGLE=0.00
		SCAN_DIAGONAL=NOT_DIAGONAL
		MEAS_PRESET=TIME_PRESET
		MEAS_TIME=10.000
		MEAS_UNIT=GY
		PRESSURE=1013.25
		TEMPERATURE=20.00
		NORM_TEMPERATURE=20.00
		CORRECTION_FACTOR=1.0000
		CORRECTIONS=AIR_DENSITY_CORR;
		BEGIN_DATA
			-30.00		136.23E-03
			-15.00		136.06E-03
			15.00		130.76E-03
			30.00		122.49E-03
		END_DATA
	END_SCAN  10
	BEGIN_SCAN  11
		TASK_NAME=MODE_INTERVAL
		PROGRAM=BeamAdjust 1.2
		MEAS_DATE=07-Oct-2010 13:48:23
		LINAC=A4
		MODALITY=X
		INPLANE_AXIS_DIR=TARGET_GUN
		CROSSPLANE_AXIS_DIR=LEFT_RIGHT
		DEPTH_AXIS_DIR=UP_DOWN
		ENERGY=6.00
		SSD=950.00
		WEDGE=None
		FIELD_INPLANE=100.00
		FIELD_CROSSPLANE=100.00
		FIELD_TYPE=RECTANGULAR
		GANTRY=0.00
		GANTRY_UPRIGHT_POSITION=0
		GANTRY_ROTATION=CW
		COLL_ANGLE=90.00
		COLL_OFFSET_INPLANE=0.00
		COLL_OFFSET_CROSSPLANE=0.00
		SCAN_DEVICE=STARCHECK
		ELECTROMETER=2D_ARRAY_INTERFACE
		DETECTOR=STARCHECK
		SCAN_CURVETYPE=INPLANE_PROFILE
		SCAN_DEPTH=0.00
		SCAN_OFFAXIS_CROSSPLANE=0.00
		SCAN_ANGLE=0.00
		SCAN_DIAGONAL=NOT_DIAGONAL
		MEAS_PRESET=TIME_PRESET
		MEAS_TIME=10.000
		MEAS_UNIT=GY
		PRESSURE=1013.25
		TEMPERATURE=20.00
		NORM_TEMPERATURE=20.00
		CORRECTION_FACTOR=1.0000
		CORRECTIONS=AIR_DENSITY_CORR;
		BEGIN_DATA
			-126.00		9.7614E-03
			-123.00		9.0453E-03
			-120.00		10.564E-03
			-117.00		11.562E-03
			-114.00		12.081E-03
			-111.00		12.858E-03
			-108.00		13.637E-03
			-105.00		14.805E-03
			-102.00		15.928E-03
			-99.00		17.000E-03
			-96.00		18.539E-03
			-93.00		20.345E-03
			-90.00		21.593E-03
			-87.00		23.789E-03
			-84.00		25.822E-03
			-81.00		28.133E-03
			-78.00		30.732E-03
			-75.00		33.157E-03
			-72.00		36.903E-03
			-69.00		40.792E-03
			-66.00		46.412E-03
			-63.00		52.452E-03
			-60.00		62.944E-03
			-57.00		83.339E-03
			-54.00		135.54E-03
			-51.00		311.36E-03
			-48.00		558.72E-03
			-45.00		623.43E-03
			-42.00		642.89E-03
			-39.00		651.76E-03
			-36.00		657.42E-03
			-33.00		660.97E-03
			-30.00		664.61E-03
			-27.00		665.66E-03
			-24.00		665.11E-03
			-21.00		664.24E-03
			-18.00		670.72E-03
			-15.00		669.72E-03
			-12.00		670.88E-03
			-9.00		670.76E-03
			-6.00		668.27E-03
			0.00		667.76E-03
			6.00		672.50E-03
			9.00		671.93E-03
			12.00		670.76E-03
			15.00		668.65E-03
			18.00		664.72E-03
			21.00		664.44E-03
			24.00		660.84E-03
			27.00		662.63E-03
			30.00		658.66E-03
			33.00		656.50E-03
			36.00		654.41E-03
			39.00		642.94E-03
			42.00		630.97E-03
			45.00		596.84E-03
			48.00		430.51E-03
			51.00		187.52E-03
			54.00		98.635E-03
			57.00		69.873E-03
			60.00		57.313E-03
			63.00		49.013E-03
			66.00		43.527E-03
			69.00		38.735E-03
			72.00		35.275E-03
			75.00		31.989E-03
			78.00		28.582E-03
			81.00		26.187E-03
			84.00		24.625E-03
			87.00		22.638E-03
			90.00		21.161E-03
			93.00		19.522E-03
			96.00		18.080E-03
			99.00		16.724E-03
			102.00		15.353E-03
			105.00		14.427E-03
			108.00		13.727E-03
			111.00		12.633E-03
			114.00		12.184E-03
			117.00		11.558E-03
			120.00		11.154E-03
			123.00		10.045E-03
			126.00		9.0817E-03
		END_DATA
	END_SCAN  11
	BEGIN_SCAN  12
		TASK_NAME=MODE_INTERVAL
		PROGRAM=BeamAdjust 1.2
		MEAS_DATE=07-Oct-2010 13:48:23
		LINAC=A4
		MODALITY=X
		INPLANE_AXIS_DIR=TARGET_GUN
		CROSSPLANE_AXIS_DIR=LEFT_RIGHT
		DEPTH_AXIS_DIR=UP_DOWN
		ENERGY=6.00
		SSD=950.00
		WEDGE=None
		FIELD_INPLANE=100.00
		FIELD_CROSSPLANE=100.00
		FIELD_TYPE=RECTANGULAR
		GANTRY=0.00
		GANTRY_UPRIGHT_POSITION=0
		GANTRY_ROTATION=CW
		COLL_ANGLE=90.00
		COLL_OFFSET_INPLANE=0.00
		COLL_OFFSET_CROSSPLANE=0.00
		SCAN_DEVICE=STARCHECK
		ELECTROMETER=2D_ARRAY_INTERFACE
		DETECTOR=STARCHECK
		SCAN_CURVETYPE=INPLANE_PROFILE
		SCAN_DEPTH=0.00
		SCAN_OFFAXIS_CROSSPLANE=50.00
		SCAN_ANGLE=0.00
		SCAN_DIAGONAL=NOT_DIAGONAL
		MEAS_PRESET=TIME_PRESET
		MEAS_TIME=10.000
		MEAS_UNIT=GY
		PRESSURE=1013.25
		TEMPERATURE=20.00
		NORM_TEMPERATURE=20.00
		CORRECTION_FACTOR=1.0000
		CORRECTIONS=AIR_DENSITY_CORR;
		BEGIN_DATA
			-30.00		581.05E-03
			-15.00		588.26E-03
			15.00		588.55E-03
			30.00		588.06E-03
		END_DATA
	END_SCAN  12
	BEGIN_SCAN  13
		TASK_NAME=MODE_INTERVAL
		PROGRAM=BeamAdjust 1.2
		MEAS_DATE=07-Oct-2010 13:48:23
		LINAC=A4
		MODALITY=X
		INPLANE_AXIS_DIR=TARGET_GUN
		CROSSPLANE_AXIS_DIR=LEFT_RIGHT
		DEPTH_AXIS_DIR=UP_DOWN
		ENERGY=6.00
		SSD=950.00
		WEDGE=None
		FIELD_INPLANE=100.00
		FIELD_CROSSPLANE=100.00
		FIELD_TYPE=RECTANGULAR
		GANTRY=0.00
		GANTRY_UPRIGHT_POSITION=0
		GANTRY_ROTATION=CW
		COLL_ANGLE=90.00
		COLL_OFFSET_INPLANE=0.00
		COLL_OFFSET_CROSSPLANE=0.00
		SCAN_DEVICE=STARCHECK
		ELECTROMETER=2D_ARRAY_INTERFACE
		DETECTOR=STARCHECK
		SCAN_CURVETYPE=INPLANE_PROFILE
		SCAN_DEPTH=0.00
		SCAN_OFFAXIS_CROSSPLANE=100.00
		SCAN_ANGLE=0.00
		SCAN_DIAGONAL=NOT_DIAGONAL
		MEAS_PRESET=TIME_PRESET
		MEAS_TIME=10.000
		MEAS_UNIT=GY
		PRESSURE=1013.25
		TEMPERATURE=20.00
		NORM_TEMPERATURE=20.00
		CORRECTION_FACTOR=1.0000
		CORRECTIONS=AIR_DENSITY_CORR;
		BEGIN_DATA
			-60.00		8.7264E-03
			-30.00		11.432E-03
			30.00		11.632E-03
			60.00		8.5434E-03
		END_DATA
	END_SCAN  13
	BEGIN_SCAN  14
		TASK_NAME=MODE_INTERVAL
		PROGRAM=BeamAdjust 1.2
		MEAS_DATE=07-Oct-2010 13:48:23
		LINAC=A4
		MODALITY=X
		INPLANE_AXIS_DIR=TARGET_GUN
		CROSSPLANE_AXIS_DIR=LEFT_RIGHT
		DEPTH_AXIS_DIR=UP_DOWN
		ENERGY=6.00
		SSD=950.00
		WEDGE=None
		FIELD_INPLANE=100.00
		FIELD_CROSSPLANE=100.00
		FIELD_TYPE=RECTANGULAR
		GANTRY=0.00
		GANTRY_UPRIGHT_POSITION=0
		GANTRY_ROTATION=CW
		COLL_ANGLE=90.00
		COLL_OFFSET_INPLANE=0.00
		COLL_OFFSET_CROSSPLANE=0.00
		SCAN_DEVICE=STARCHECK
		ELECTROMETER=2D_ARRAY_INTERFACE
		DETECTOR=STARCHECK
		SCAN_CURVETYPE=INPLANE_PROFILE
		SCAN_DEPTH=0.00
		SCAN_OFFAXIS_CROSSPLANE=130.00
		SCAN_ANGLE=0.00
		SCAN_DIAGONAL=NOT_DIAGONAL
		MEAS_PRESET=TIME_PRESET
		MEAS_TIME=10.000
		MEAS_UNIT=GY
		PRESSURE=1013.25
		TEMPERATURE=20.00
		NORM_TEMPERATURE=20.00
		CORRECTION_FACTOR=1.0000
		CORRECTIONS=AIR_DENSITY_CORR;
		BEGIN_DATA
			-130.00		2.2756E-03
			-125.00		2.9262E-03
			-120.00		2.6648E-03
			-115.00		2.7196E-03
			-110.00		2.8311E-03
			-105.00		3.0573E-03
			-100.00		3.5425E-03
			-95.00		3.8885E-03
			-90.00		2.9827E-03
			-85.00		4.0731E-03
			-80.00		3.9350E-03
			-75.00		4.2055E-03
			-70.00		4.2609E-03
			-65.00		4.3318E-03
			-60.00		5.0806E-03
			-55.00		4.9879E-03
			-50.00		4.8586E-03
			-45.00		5.2890E-03
			-40.00		5.4180E-03
			-35.00		5.7891E-03
			-30.00		5.9036E-03
			-25.00		6.1856E-03
			-20.00		6.0948E-03
			-15.00		5.7030E-03
			-10.00		5.3380E-03
			-5.00		6.4423E-03
			0.00		6.9268E-03
			5.00		6.1859E-03
			10.00		6.3756E-03
			15.00		5.7364E-03
			20.00		6.1104E-03
			25.00		5.9685E-03
			30.00		5.3830E-03
			35.00		5.2968E-03
			40.00		5.9917E-03
			45.00		5.4624E-03
			50.00		5.2218E-03
			55.00		5.5077E-03
			60.00		4.8982E-03
			65.00		4.3372E-03
			70.00		4.3395E-03
			75.00		4.3445E-03
			80.00		4.1980E-03
			85.00		4.0429E-03
			90.00		3.5432E-03
			95.00		3.6977E-03
			100.00		3.6091E-03
			105.00		2.9802E-03
			110.00		3.2015E-03
			115.00		2.8036E-03
			120.00		2.8790E-03
			125.00		2.4025E-03
			130.00		2.4970E-03
		END_DATA
	END_SCAN  14
	BEGIN_SCAN  15
		TASK_NAME=MODE_INTERVAL
		PROGRAM=BeamAdjust 1.2
		MEAS_DATE=07-Oct-2010 13:48:23
		LINAC=A4
		MODALITY=X
		INPLANE_AXIS_DIR=TARGET_GUN
		CROSSPLANE_AXIS_DIR=LEFT_RIGHT
		DEPTH_AXIS_DIR=UP_DOWN
		ENERGY=6.00
		SSD=950.00
		WEDGE=None
		FIELD_INPLANE=100.00
		FIELD_CROSSPLANE=100.00
		FIELD_TYPE=RECTANGULAR
		GANTRY=0.00
		GANTRY_UPRIGHT_POSITION=0
		GANTRY_ROTATION=CW
		COLL_ANGLE=90.00
		COLL_OFFSET_INPLANE=0.00
		COLL_OFFSET_CROSSPLANE=0.00
		SCAN_DEVICE=STARCHECK
		ELECTROMETER=2D_ARRAY_INTERFACE
		DETECTOR=STARCHECK
		SCAN_CURVETYPE=INPLANE_PROFILE
		SCAN_DEPTH=0.00
		SCAN_OFFAXIS_CROSSPLANE=0.00
		SCAN_ANGLE=0.00
		SCAN_DIAGONAL=FIRST_DIAGONAL
		MEAS_PRESET=TIME_PRESET
		MEAS_TIME=10.000
		MEAS_UNIT=GY
		PRESSURE=1013.25
		TEMPERATURE=20.00
		NORM_TEMPERATURE=20.00
		CORRECTION_FACTOR=1.0000
		CORRECTIONS=AIR_DENSITY_CORR;
		BEGIN_DATA
			-172.40		2.6857E-03
			-169.40		3.2003E-03
			-166.40		4.2303E-03
			-163.40		3.5508E-03
			-160.40		4.0982E-03
			-157.40		3.8502E-03
			-154.40		4.0102E-03
			-151.40		3.8664E-03
			-148.40		4.7053E-03
			-145.40		4.8904E-03
			-142.40		5.5291E-03
			-139.40		5.6775E-03
			-136.40		6.1108E-03
			-133.40		6.6184E-03
			-130.40		6.5971E-03
			-127.40		7.3081E-03
			-124.40		7.6333E-03
			-121.40		8.6591E-03
			-118.40		9.1239E-03
			-115.40		10.196E-03
			-112.40		10.571E-03
			-109.40		12.149E-03
			-106.40		13.033E-03
			-103.40		13.516E-03
			-100.40		15.052E-03
			-97.40		16.898E-03
			-94.40		18.655E-03
			-91.40		20.481E-03
			-88.40		22.907E-03
			-85.40		24.982E-03
			-82.40		28.772E-03
			-79.40		33.086E-03
			-76.40		39.535E-03
			-73.40		54.431E-03
			-70.40		98.731E-03
			-67.40		244.16E-03
			-64.40		432.43E-03
			-61.40		555.33E-03
			-58.40		605.25E-03
			-55.40		625.90E-03
			-52.40		637.09E-03
			-49.40		644.13E-03
			-46.40		647.74E-03
			-43.40		650.83E-03
			-40.40		654.20E-03
			-37.40		659.35E-03
			-34.40		659.32E-03
			-31.40		661.47E-03
			-28.40		660.46E-03
			-25.40		663.51E-03
			-22.40		663.49E-03
			-19.40		663.55E-03
			-16.40		667.79E-03
			-13.40		670.62E-03
			0.00		667.76E-03
			13.40		673.47E-03
			16.40		668.46E-03
			19.40		668.11E-03
			22.40		666.68E-03
			25.40		665.92E-03
			28.40		664.85E-03
			31.40		663.02E-03
			34.40		659.83E-03
			37.40		662.72E-03
			40.40		660.49E-03
			43.40		657.45E-03
			46.40		655.85E-03
			49.40		650.94E-03
			52.40		646.15E-03
			55.40		635.81E-03
			58.40		623.82E-03
			61.40		597.89E-03
			64.40		525.25E-03
			67.40		388.73E-03
			70.40		225.03E-03
			73.40		101.41E-03
			76.40		56.686E-03
			79.40		41.535E-03
			82.40		34.273E-03
			85.40		29.319E-03
			88.40		26.258E-03
			91.40		23.396E-03
			94.40		20.958E-03
			97.40		18.821E-03
			100.40		16.935E-03
			103.40		15.966E-03
			106.40		14.561E-03
			109.40		13.091E-03
			112.40		11.206E-03
			115.40		11.128E-03
			118.40		9.6145E-03
			121.40		9.1791E-03
			124.40		8.3513E-03
			127.40		8.3709E-03
			130.40		7.7128E-03
			133.40		7.3794E-03
			136.40		5.8619E-03
			139.40		5.6894E-03
			142.40		5.2588E-03
			145.40		5.3701E-03
			148.40		5.7156E-03
			151.40		4.3443E-03
			154.40		4.5012E-03
			157.40		4.0761E-03
			160.40		3.5896E-03
			163.40		3.2839E-03
			166.40		3.5697E-03
			169.40		3.0658E-03
			172.40		3.3787E-03
		END_DATA
	END_SCAN  15
	BEGIN_SCAN  16
		TASK_NAME=MODE_INTERVAL
		PROGRAM=BeamAdjust 1.2
		MEAS_DATE=07-Oct-2010 13:48:23
		LINAC=A4
		MODALITY=X
		INPLANE_AXIS_DIR=GUN_TARGET
		CROSSPLANE_AXIS_DIR=LEFT_RIGHT
		DEPTH_AXIS_DIR=UP_DOWN
		ENERGY=6.00
		SSD=950.00
		WEDGE=None
		FIELD_INPLANE=100.00
		FIELD_CROSSPLANE=100.00
		FIELD_TYPE=RECTANGULAR
		GANTRY=0.00
		GANTRY_UPRIGHT_POSITION=0
		GANTRY_ROTATION=CW
		COLL_ANGLE=90.00
		COLL_OFFSET_INPLANE=0.00
		COLL_OFFSET_CROSSPLANE=0.00
		SCAN_DEVICE=STARCHECK
		ELECTROMETER=2D_ARRAY_INTERFACE
		DETECTOR=STARCHECK
		SCAN_CURVETYPE=INPLANE_PROFILE
		SCAN_DEPTH=0.00
		SCAN_OFFAXIS_CROSSPLANE=0.00
		SCAN_ANGLE=0.00
		SCAN_DIAGONAL=SECOND_DIAGONAL
		MEAS_PRESET=TIME_PRESET
		MEAS_TIME=10.000
		MEAS_UNIT=GY
		PRESSURE=1013.25
		TEMPERATURE=20.00
		NORM_TEMPERATURE=20.00
		CORRECTION_FACTOR=1.0000
		CORRECTIONS=AIR_DENSITY_CORR;
		BEGIN_DATA
			-172.40		2.8711E-03
			-169.40		3.0031E-03
			-166.40		3.3465E-03
			-163.40		3.4738E-03
			-160.40		3.8943E-03
			-157.40		3.9732E-03
			-154.40		4.0345E-03
			-151.40		4.5630E-03
			-148.40		5.1940E-03
			-145.40		5.2333E-03
			-142.40		5.6138E-03
			-139.40		5.8926E-03
			-136.40		6.2505E-03
			-133.40		7.3659E-03
			-130.40		7.5845E-03
			-127.40		8.3475E-03
			-124.40		9.2512E-03
			-121.40		9.8627E-03
			-118.40		10.518E-03
			-115.40		10.898E-03
			-112.40		11.503E-03
			-109.40		13.174E-03
			-106.40		14.708E-03
			-103.40		15.778E-03
			-100.40		17.695E-03
			-97.40		19.115E-03
			-94.40		21.119E-03
			-91.40		23.580E-03
			-88.40		26.026E-03
			-85.40		30.026E-03
			-82.40		36.102E-03
			-79.40		45.115E-03
			-76.40		66.967E-03
			-73.40		144.85E-03
			-70.40		331.34E-03
			-67.40		502.41E-03
			-64.40		588.17E-03
			-61.40		620.30E-03
			-58.40		637.28E-03
			-55.40		644.64E-03
			-52.40		653.29E-03
			-49.40		656.62E-03
			-46.40		659.31E-03
			-43.40		661.93E-03
			-40.40		664.50E-03
			-37.40		666.88E-03
			-34.40		666.44E-03
			-31.40		666.73E-03
			-28.40		669.02E-03
			-25.40		667.82E-03
			-22.40		666.51E-03
			-19.40		670.28E-03
			-16.40		671.87E-03
			-13.40		673.97E-03
			0.00		667.76E-03
			13.40		670.65E-03
			16.40		668.03E-03
			19.40		665.30E-03
			22.40		663.03E-03
			25.40		663.04E-03
			28.40		661.27E-03
			31.40		659.18E-03
			34.40		655.83E-03
			37.40		655.08E-03
			40.40		653.65E-03
			43.40		650.82E-03
			46.40		647.98E-03
			49.40		642.19E-03
			52.40		631.69E-03
			55.40		618.34E-03
			58.40		594.54E-03
			61.40		527.18E-03
			64.40		365.18E-03
			67.40		166.48E-03
			70.40		73.168E-03
			73.40		46.985E-03
			76.40		36.605E-03
			79.40		30.623E-03
			82.40		27.596E-03
			85.40		24.701E-03
			88.40		21.803E-03
			91.40		20.044E-03
			94.40		18.108E-03
			97.40		16.909E-03
			100.40		14.218E-03
			103.40		13.281E-03
			106.40		12.494E-03
			109.40		11.803E-03
			112.40		10.779E-03
			115.40		9.6728E-03
			118.40		9.0364E-03
			121.40		8.0448E-03
			124.40		7.7146E-03
			127.40		7.1037E-03
			130.40		7.1710E-03
			133.40		6.4029E-03
			136.40		5.9108E-03
			139.40		5.9746E-03
			142.40		5.5907E-03
			145.40		5.2648E-03
			148.40		4.6351E-03
			151.40		4.8541E-03
			154.40		4.2361E-03
			157.40		4.1628E-03
			160.40		3.7874E-03
			163.40		3.9230E-03
			166.40		3.5036E-03
			169.40		2.8419E-03
			172.40		2.6332E-03
		END_DATA
	END_SCAN  16
END_SCAN_DATA
