BEGIN_SCAN_DATA
	FORMAT=CC-Export V1.9                  
	FILE_CREATION_DATE=07-Oct-2010 13:47:56
	LAST_MODIFIED=07-Oct-2010 13:47:56
	BEGIN_SCAN  1
		TASK_NAME=MODE_INTERVAL
		PROGRAM=BeamAdjust 1.2
		MEAS_DATE=07-Oct-2010 13:47:56
		LINAC=A4
		MODALITY=X
		INPLANE_AXIS_DIR=TARGET_GUN
		CROSSPLANE_AXIS_DIR=LEFT_RIGHT
		DEPTH_AXIS_DIR=UP_DOWN
		ENERGY=6.00
		SSD=950.00
		WEDGE=None
		FIELD_INPLANE=100.00
		FIELD_CROSSPLANE=100.00
		FIELD_TYPE=RECTANGULAR
		GANTRY=0.00
		GANTRY_UPRIGHT_POSITION=0
		GANTRY_ROTATION=CW
		COLL_ANGLE=90.00
		COLL_OFFSET_INPLANE=0.00
		COLL_OFFSET_CROSSPLANE=0.00
		SCAN_DEVICE=STARCHECK
		ELECTROMETER=2D_ARRAY_INTERFACE
		DETECTOR=STARCHECK
		SCAN_CURVETYPE=CROSSPLANE_PROFILE
		SCAN_DEPTH=0.00
		SCAN_OFFAXIS_INPLANE=-130.00
		SCAN_ANGLE=0.00
		SCAN_DIAGONAL=NOT_DIAGONAL
		MEAS_PRESET=TIME_PRESET
		MEAS_TIME=10.000
		MEAS_UNIT=GY
		PRESSURE=1013.25
		TEMPERATURE=20.00
		NORM_TEMPERATURE=20.00
		CORRECTION_FACTOR=1.0000
		CORRECTIONS=AIR_DENSITY_CORR;
		BEGIN_DATA
			-130.00		2.4257E-03
			-80.00		4.2239E-03
			-40.00		6.7557E-03
			40.00		7.1312E-03
			80.00		4.2216E-03
			130.00		2.3923E-03
		END_DATA
	END_SCAN  1
	BEGIN_SCAN  2
		TASK_NAME=MODE_INTERVAL
		PROGRAM=BeamAdjust 1.2
		MEAS_DATE=07-Oct-2010 13:47:56
		LINAC=A4
		MODALITY=X
		INPLANE_AXIS_DIR=TARGET_GUN
		CROSSPLANE_AXIS_DIR=LEFT_RIGHT
		DEPTH_AXIS_DIR=UP_DOWN
		ENERGY=6.00
		SSD=950.00
		WEDGE=None
		FIELD_INPLANE=100.00
		FIELD_CROSSPLANE=100.00
		FIELD_TYPE=RECTANGULAR
		GANTRY=0.00
		GANTRY_UPRIGHT_POSITION=0
		GANTRY_ROTATION=CW
		COLL_ANGLE=90.00
		COLL_OFFSET_INPLANE=0.00
		COLL_OFFSET_CROSSPLANE=0.00
		SCAN_DEVICE=STARCHECK
		ELECTROMETER=2D_ARRAY_INTERFACE
		DETECTOR=STARCHECK
		SCAN_CURVETYPE=CROSSPLANE_PROFILE
		SCAN_DEPTH=0.00
		SCAN_OFFAXIS_INPLANE=-100.00
		SCAN_ANGLE=0.00
		SCAN_DIAGONAL=NOT_DIAGONAL
		MEAS_PRESET=TIME_PRESET
		MEAS_TIME=10.000
		MEAS_UNIT=GY
		PRESSURE=1013.25
		TEMPERATURE=20.00
		NORM_TEMPERATURE=20.00
		CORRECTION_FACTOR=1.0000
		CORRECTIONS=AIR_DENSITY_CORR;
		BEGIN_DATA
			-60.00		10.071E-03
			-30.00		14.159E-03
			30.00		15.349E-03
			60.00		11.050E-03
		END_DATA
	END_SCAN  2
	BEGIN_SCAN  3
		TASK_NAME=MODE_INTERVAL
		PROGRAM=BeamAdjust 1.2
		MEAS_DATE=07-Oct-2010 13:47:56
		LINAC=A4
		MODALITY=X
		INPLANE_AXIS_DIR=TARGET_GUN
		CROSSPLANE_AXIS_DIR=LEFT_RIGHT
		DEPTH_AXIS_DIR=UP_DOWN
		ENERGY=6.00
		SSD=950.00
		WEDGE=None
		FIELD_INPLANE=100.00
		FIELD_CROSSPLANE=100.00
		FIELD_TYPE=RECTANGULAR
		GANTRY=0.00
		GANTRY_UPRIGHT_POSITION=0
		GANTRY_ROTATION=CW
		COLL_ANGLE=90.00
		COLL_OFFSET_INPLANE=0.00
		COLL_OFFSET_CROSSPLANE=0.00
		SCAN_DEVICE=STARCHECK
		ELECTROMETER=2D_ARRAY_INTERFACE
		DETECTOR=STARCHECK
		SCAN_CURVETYPE=CROSSPLANE_PROFILE
		SCAN_DEPTH=0.00
		SCAN_OFFAXIS_INPLANE=-50.00
		SCAN_ANGLE=0.00
		SCAN_DIAGONAL=NOT_DIAGONAL
		MEAS_PRESET=TIME_PRESET
		MEAS_TIME=10.000
		MEAS_UNIT=GY
		PRESSURE=1013.25
		TEMPERATURE=20.00
		NORM_TEMPERATURE=20.00
		CORRECTION_FACTOR=1.0000
		CORRECTIONS=AIR_DENSITY_CORR;
		BEGIN_DATA
			-30.00		389.56E-03
			-15.00		368.69E-03
			15.00		389.71E-03
			30.00		394.96E-03
		END_DATA
	END_SCAN  3
	BEGIN_SCAN  4
		TASK_NAME=MODE_INTERVAL
		PROGRAM=BeamAdjust 1.2
		MEAS_DATE=07-Oct-2010 13:47:56
		LINAC=A4
		MODALITY=X
		INPLANE_AXIS_DIR=TARGET_GUN
		CROSSPLANE_AXIS_DIR=LEFT_RIGHT
		DEPTH_AXIS_DIR=UP_DOWN
		ENERGY=6.00
		SSD=950.00
		WEDGE=None
		FIELD_INPLANE=100.00
		FIELD_CROSSPLANE=100.00
		FIELD_TYPE=RECTANGULAR
		GANTRY=0.00
		GANTRY_UPRIGHT_POSITION=0
		GANTRY_ROTATION=CW
		COLL_ANGLE=90.00
		COLL_OFFSET_INPLANE=0.00
		COLL_OFFSET_CROSSPLANE=0.00
		SCAN_DEVICE=STARCHECK
		ELECTROMETER=2D_ARRAY_INTERFACE
		DETECTOR=STARCHECK
		SCAN_CURVETYPE=CROSSPLANE_PROFILE
		SCAN_DEPTH=0.00
		SCAN_OFFAXIS_INPLANE=0.00
		SCAN_ANGLE=0.00
		SCAN_DIAGONAL=NOT_DIAGONAL
		MEAS_PRESET=TIME_PRESET
		MEAS_TIME=10.000
		MEAS_UNIT=GY
		PRESSURE=1013.25
		TEMPERATURE=20.00
		NORM_TEMPERATURE=20.00
		CORRECTION_FACTOR=1.0000
		CORRECTIONS=AIR_DENSITY_CORR;
		BEGIN_DATA
			-126.00		6.3767E-03
			-123.00		7.4697E-03
			-120.00		7.6370E-03
			-117.00		8.4118E-03
			-114.00		8.3009E-03
			-111.00		9.1102E-03
			-108.00		10.154E-03
			-105.00		10.257E-03
			-102.00		11.492E-03
			-99.00		12.320E-03
			-96.00		13.299E-03
			-93.00		14.236E-03
			-90.00		15.162E-03
			-87.00		16.751E-03
			-84.00		18.745E-03
			-81.00		19.635E-03
			-78.00		21.414E-03
			-75.00		24.438E-03
			-72.00		26.293E-03
			-69.00		29.631E-03
			-66.00		33.740E-03
			-63.00		38.098E-03
			-60.00		44.388E-03
			-57.00		52.504E-03
			-54.00		66.962E-03
			-51.00		102.38E-03
			-48.00		227.88E-03
			-45.00		516.04E-03
			-42.00		607.57E-03
			-39.00		635.82E-03
			-36.00		647.46E-03
			-33.00		650.12E-03
			-30.00		653.12E-03
			-27.00		656.83E-03
			-24.00		659.61E-03
			-21.00		659.49E-03
			-18.00		665.84E-03
			-15.00		664.97E-03
			-12.00		665.54E-03
			-9.00		669.45E-03
			-6.00		669.34E-03
			0.00		667.07E-03
			6.00		669.66E-03
			9.00		669.08E-03
			12.00		667.63E-03
			15.00		668.41E-03
			18.00		667.50E-03
			21.00		664.97E-03
			24.00		661.37E-03
			27.00		666.02E-03
			30.00		664.48E-03
			33.00		663.56E-03
			36.00		661.52E-03
			39.00		658.60E-03
			42.00		652.46E-03
			45.00		643.06E-03
			48.00		622.20E-03
			51.00		559.59E-03
			54.00		298.90E-03
			57.00		115.54E-03
			60.00		73.376E-03
			63.00		56.271E-03
			66.00		45.840E-03
			69.00		39.159E-03
			72.00		34.408E-03
			75.00		30.953E-03
			78.00		27.146E-03
			81.00		24.763E-03
			84.00		22.160E-03
			87.00		20.030E-03
			90.00		18.622E-03
			93.00		17.058E-03
			96.00		15.051E-03
			99.00		13.965E-03
			102.00		12.956E-03
			105.00		12.265E-03
			108.00		11.363E-03
			111.00		10.335E-03
			114.00		9.6589E-03
			117.00		9.0992E-03
			120.00		7.7643E-03
			123.00		7.6602E-03
			126.00		7.4467E-03
		END_DATA
	END_SCAN  4
	BEGIN_SCAN  5
		TASK_NAME=MODE_INTERVAL
		PROGRAM=BeamAdjust 1.2
		MEAS_DATE=07-Oct-2010 13:47:56
		LINAC=A4
		MODALITY=X
		INPLANE_AXIS_DIR=TARGET_GUN
		CROSSPLANE_AXIS_DIR=LEFT_RIGHT
		DEPTH_AXIS_DIR=UP_DOWN
		ENERGY=6.00
		SSD=950.00
		WEDGE=None
		FIELD_INPLANE=100.00
		FIELD_CROSSPLANE=100.00
		FIELD_TYPE=RECTANGULAR
		GANTRY=0.00
		GANTRY_UPRIGHT_POSITION=0
		GANTRY_ROTATION=CW
		COLL_ANGLE=90.00
		COLL_OFFSET_INPLANE=0.00
		COLL_OFFSET_CROSSPLANE=0.00
		SCAN_DEVICE=STARCHECK
		ELECTROMETER=2D_ARRAY_INTERFACE
		DETECTOR=STARCHECK
		SCAN_CURVETYPE=CROSSPLANE_PROFILE
		SCAN_DEPTH=0.00
		SCAN_OFFAXIS_INPLANE=50.00
		SCAN_ANGLE=0.00
		SCAN_DIAGONAL=NOT_DIAGONAL
		MEAS_PRESET=TIME_PRESET
		MEAS_TIME=10.000
		MEAS_UNIT=GY
		PRESSURE=1013.25
		TEMPERATURE=20.00
		NORM_TEMPERATURE=20.00
		CORRECTION_FACTOR=1.0000
		CORRECTIONS=AIR_DENSITY_CORR;
		BEGIN_DATA
			-30.00		262.45E-03
			-15.00		284.85E-03
			15.00		261.49E-03
			30.00		256.66E-03
		END_DATA
	END_SCAN  5
	BEGIN_SCAN  6
		TASK_NAME=MODE_INTERVAL
		PROGRAM=BeamAdjust 1.2
		MEAS_DATE=07-Oct-2010 13:47:56
		LINAC=A4
		MODALITY=X
		INPLANE_AXIS_DIR=TARGET_GUN
		CROSSPLANE_AXIS_DIR=LEFT_RIGHT
		DEPTH_AXIS_DIR=UP_DOWN
		ENERGY=6.00
		SSD=950.00
		WEDGE=None
		FIELD_INPLANE=100.00
		FIELD_CROSSPLANE=100.00
		FIELD_TYPE=RECTANGULAR
		GANTRY=0.00
		GANTRY_UPRIGHT_POSITION=0
		GANTRY_ROTATION=CW
		COLL_ANGLE=90.00
		COLL_OFFSET_INPLANE=0.00
		COLL_OFFSET_CROSSPLANE=0.00
		SCAN_DEVICE=STARCHECK
		ELECTROMETER=2D_ARRAY_INTERFACE
		DETECTOR=STARCHECK
		SCAN_CURVETYPE=CROSSPLANE_PROFILE
		SCAN_DEPTH=0.00
		SCAN_OFFAXIS_INPLANE=100.00
		SCAN_ANGLE=0.00
		SCAN_DIAGONAL=NOT_DIAGONAL
		MEAS_PRESET=TIME_PRESET
		MEAS_TIME=10.000
		MEAS_UNIT=GY
		PRESSURE=1013.25
		TEMPERATURE=20.00
		NORM_TEMPERATURE=20.00
		CORRECTION_FACTOR=1.0000
		CORRECTIONS=AIR_DENSITY_CORR;
		BEGIN_DATA
			-60.00		10.017E-03
			-30.00		14.607E-03
			30.00		15.093E-03
			60.00		10.023E-03
		END_DATA
	END_SCAN  6
	BEGIN_SCAN  7
		TASK_NAME=MODE_INTERVAL
		PROGRAM=BeamAdjust 1.2
		MEAS_DATE=07-Oct-2010 13:47:56
		LINAC=A4
		MODALITY=X
		INPLANE_AXIS_DIR=TARGET_GUN
		CROSSPLANE_AXIS_DIR=LEFT_RIGHT
		DEPTH_AXIS_DIR=UP_DOWN
		ENERGY=6.00
		SSD=950.00
		WEDGE=None
		FIELD_INPLANE=100.00
		FIELD_CROSSPLANE=100.00
		FIELD_TYPE=RECTANGULAR
		GANTRY=0.00
		GANTRY_UPRIGHT_POSITION=0
		GANTRY_ROTATION=CW
		COLL_ANGLE=90.00
		COLL_OFFSET_INPLANE=0.00
		COLL_OFFSET_CROSSPLANE=0.00
		SCAN_DEVICE=STARCHECK
		ELECTROMETER=2D_ARRAY_INTERFACE
		DETECTOR=STARCHECK
		SCAN_CURVETYPE=CROSSPLANE_PROFILE
		SCAN_DEPTH=0.00
		SCAN_OFFAXIS_INPLANE=130.00
		SCAN_ANGLE=0.00
		SCAN_DIAGONAL=NOT_DIAGONAL
		MEAS_PRESET=TIME_PRESET
		MEAS_TIME=10.000
		MEAS_UNIT=GY
		PRESSURE=1013.25
		TEMPERATURE=20.00
		NORM_TEMPERATURE=20.00
		CORRECTION_FACTOR=1.0000
		CORRECTIONS=AIR_DENSITY_CORR;
		BEGIN_DATA
			-130.00		2.0359E-03
			-80.00		4.3545E-03
			-40.00		7.2927E-03
			40.00		7.5304E-03
			80.00		4.6204E-03
			130.00		2.3432E-03
		END_DATA
	END_SCAN  7
	BEGIN_SCAN  8
		TASK_NAME=MODE_INTERVAL
		PROGRAM=BeamAdjust 1.2
		MEAS_DATE=07-Oct-2010 13:47:56
		LINAC=A4
		MODALITY=X
		INPLANE_AXIS_DIR=TARGET_GUN
		CROSSPLANE_AXIS_DIR=LEFT_RIGHT
		DEPTH_AXIS_DIR=UP_DOWN
		ENERGY=6.00
		SSD=950.00
		WEDGE=None
		FIELD_INPLANE=100.00
		FIELD_CROSSPLANE=100.00
		FIELD_TYPE=RECTANGULAR
		GANTRY=0.00
		GANTRY_UPRIGHT_POSITION=0
		GANTRY_ROTATION=CW
		COLL_ANGLE=90.00
		COLL_OFFSET_INPLANE=0.00
		COLL_OFFSET_CROSSPLANE=0.00
		SCAN_DEVICE=STARCHECK
		ELECTROMETER=2D_ARRAY_INTERFACE
		DETECTOR=STARCHECK
		SCAN_CURVETYPE=INPLANE_PROFILE
		SCAN_DEPTH=0.00
		SCAN_OFFAXIS_CROSSPLANE=-130.00
		SCAN_ANGLE=0.00
		SCAN_DIAGONAL=NOT_DIAGONAL
		MEAS_PRESET=TIME_PRESET
		MEAS_TIME=10.000
		MEAS_UNIT=GY
		PRESSURE=1013.25
		TEMPERATURE=20.00
		NORM_TEMPERATURE=20.00
		CORRECTION_FACTOR=1.0000
		CORRECTIONS=AIR_DENSITY_CORR;
		BEGIN_DATA
			-130.00		2.4257E-03
			-125.00		2.5854E-03
			-120.00		3.0459E-03
			-115.00		4.2574E-03
			-110.00		3.0004E-03
			-105.00		3.4937E-03
			-100.00		4.0227E-03
			-95.00		4.6323E-03
			-90.00		4.1818E-03
			-85.00		4.2996E-03
			-80.00		4.6658E-03
			-75.00		5.1782E-03
			-70.00		4.5768E-03
			-65.00		5.1130E-03
			-60.00		5.4238E-03
			-55.00		6.1528E-03
			-50.00		4.1885E-03
			-45.00		5.2905E-03
			-40.00		5.1870E-03
			-35.00		5.8167E-03
			-30.00		5.1226E-03
			-25.00		5.2246E-03
			-20.00		5.4040E-03
			-15.00		5.1329E-03
			-10.00		5.3393E-03
			-5.00		6.1409E-03
			0.00		6.1408E-03
			5.00		6.5341E-03
			10.00		5.7189E-03
			15.00		5.5404E-03
			20.00		5.9159E-03
			25.00		5.8279E-03
			30.00		5.8290E-03
			35.00		5.5225E-03
			40.00		4.9706E-03
			45.00		4.9322E-03
			50.00		5.2125E-03
			55.00		4.5998E-03
			60.00		4.5420E-03
			65.00		4.4368E-03
			70.00		4.1826E-03
			75.00		4.0981E-03
			80.00		3.7543E-03
			85.00		4.1014E-03
			90.00		3.6600E-03
			95.00		4.1811E-03
			100.00		3.2312E-03
			105.00		2.7088E-03
			110.00		2.8333E-03
			115.00		2.5238E-03
			120.00		2.7936E-03
			125.00		2.7105E-03
			130.00		2.0359E-03
		END_DATA
	END_SCAN  8
	BEGIN_SCAN  9
		TASK_NAME=MODE_INTERVAL
		PROGRAM=BeamAdjust 1.2
		MEAS_DATE=07-Oct-2010 13:47:56
		LINAC=A4
		MODALITY=X
		INPLANE_AXIS_DIR=TARGET_GUN
		CROSSPLANE_AXIS_DIR=LEFT_RIGHT
		DEPTH_AXIS_DIR=UP_DOWN
		ENERGY=6.00
		SSD=950.00
		WEDGE=None
		FIELD_INPLANE=100.00
		FIELD_CROSSPLANE=100.00
		FIELD_TYPE=RECTANGULAR
		GANTRY=0.00
		GANTRY_UPRIGHT_POSITION=0
		GANTRY_ROTATION=CW
		COLL_ANGLE=90.00
		COLL_OFFSET_INPLANE=0.00
		COLL_OFFSET_CROSSPLANE=0.00
		SCAN_DEVICE=STARCHECK
		ELECTROMETER=2D_ARRAY_INTERFACE
		DETECTOR=STARCHECK
		SCAN_CURVETYPE=INPLANE_PROFILE
		SCAN_DEPTH=0.00
		SCAN_OFFAXIS_CROSSPLANE=-100.00
		SCAN_ANGLE=0.00
		SCAN_DIAGONAL=NOT_DIAGONAL
		MEAS_PRESET=TIME_PRESET
		MEAS_TIME=10.000
		MEAS_UNIT=GY
		PRESSURE=1013.25
		TEMPERATURE=20.00
		NORM_TEMPERATURE=20.00
		CORRECTION_FACTOR=1.0000
		CORRECTIONS=AIR_DENSITY_CORR;
		BEGIN_DATA
			-60.00		8.2114E-03
			-30.00		10.084E-03
			30.00		9.5211E-03
			60.00		7.2609E-03
		END_DATA
	END_SCAN  9
	BEGIN_SCAN  10
		TASK_NAME=MODE_INTERVAL
		PROGRAM=BeamAdjust 1.2
		MEAS_DATE=07-Oct-2010 13:47:56
		LINAC=A4
		MODALITY=X
		INPLANE_AXIS_DIR=TARGET_GUN
		CROSSPLANE_AXIS_DIR=LEFT_RIGHT
		DEPTH_AXIS_DIR=UP_DOWN
		ENERGY=6.00
		SSD=950.00
		WEDGE=None
		FIELD_INPLANE=100.00
		FIELD_CROSSPLANE=100.00
		FIELD_TYPE=RECTANGULAR
		GANTRY=0.00
		GANTRY_UPRIGHT_POSITION=0
		GANTRY_ROTATION=CW
		COLL_ANGLE=90.00
		COLL_OFFSET_INPLANE=0.00
		COLL_OFFSET_CROSSPLANE=0.00
		SCAN_DEVICE=STARCHECK
		ELECTROMETER=2D_ARRAY_INTERFACE
		DETECTOR=STARCHECK
		SCAN_CURVETYPE=INPLANE_PROFILE
		SCAN_DEPTH=0.00
		SCAN_OFFAXIS_CROSSPLANE=-50.00
		SCAN_ANGLE=0.00
		SCAN_DIAGONAL=NOT_DIAGONAL
		MEAS_PRESET=TIME_PRESET
		MEAS_TIME=10.000
		MEAS_UNIT=GY
		PRESSURE=1013.25
		TEMPERATURE=20.00
		NORM_TEMPERATURE=20.00
		CORRECTION_FACTOR=1.0000
		CORRECTIONS=AIR_DENSITY_CORR;
		BEGIN_DATA
			-30.00		122.23E-03
			-15.00		122.76E-03
			15.00		118.30E-03
			30.00		111.01E-03
		END_DATA
	END_SCAN  10
	BEGIN_SCAN  11
		TASK_NAME=MODE_INTERVAL
		PROGRAM=BeamAdjust 1.2
		MEAS_DATE=07-Oct-2010 13:47:56
		LINAC=A4
		MODALITY=X
		INPLANE_AXIS_DIR=TARGET_GUN
		CROSSPLANE_AXIS_DIR=LEFT_RIGHT
		DEPTH_AXIS_DIR=UP_DOWN
		ENERGY=6.00
		SSD=950.00
		WEDGE=None
		FIELD_INPLANE=100.00
		FIELD_CROSSPLANE=100.00
		FIELD_TYPE=RECTANGULAR
		GANTRY=0.00
		GANTRY_UPRIGHT_POSITION=0
		GANTRY_ROTATION=CW
		COLL_ANGLE=90.00
		COLL_OFFSET_INPLANE=0.00
		COLL_OFFSET_CROSSPLANE=0.00
		SCAN_DEVICE=STARCHECK
		ELECTROMETER=2D_ARRAY_INTERFACE
		DETECTOR=STARCHECK
		SCAN_CURVETYPE=INPLANE_PROFILE
		SCAN_DEPTH=0.00
		SCAN_OFFAXIS_CROSSPLANE=0.00
		SCAN_ANGLE=0.00
		SCAN_DIAGONAL=NOT_DIAGONAL
		MEAS_PRESET=TIME_PRESET
		MEAS_TIME=10.000
		MEAS_UNIT=GY
		PRESSURE=1013.25
		TEMPERATURE=20.00
		NORM_TEMPERATURE=20.00
		CORRECTION_FACTOR=1.0000
		CORRECTIONS=AIR_DENSITY_CORR;
		BEGIN_DATA
			-126.00		9.0967E-03
			-123.00		9.1816E-03
			-120.00		10.404E-03
			-117.00		11.580E-03
			-114.00		11.775E-03
			-111.00		12.811E-03
			-108.00		13.775E-03
			-105.00		14.863E-03
			-102.00		16.216E-03
			-99.00		17.121E-03
			-96.00		18.163E-03
			-93.00		20.493E-03
			-90.00		21.813E-03
			-87.00		24.014E-03
			-84.00		25.498E-03
			-81.00		28.327E-03
			-78.00		30.674E-03
			-75.00		33.619E-03
			-72.00		36.703E-03
			-69.00		40.734E-03
			-66.00		46.077E-03
			-63.00		52.559E-03
			-60.00		62.983E-03
			-57.00		83.324E-03
			-54.00		135.05E-03
			-51.00		311.98E-03
			-48.00		558.92E-03
			-45.00		622.79E-03
			-42.00		642.26E-03
			-39.00		651.03E-03
			-36.00		656.74E-03
			-33.00		660.31E-03
			-30.00		663.95E-03
			-27.00		664.79E-03
			-24.00		664.32E-03
			-21.00		663.28E-03
			-18.00		670.24E-03
			-15.00		668.67E-03
			-12.00		670.22E-03
			-9.00		670.13E-03
			-6.00		667.46E-03
			0.00		667.07E-03
			6.00		671.67E-03
			9.00		670.97E-03
			12.00		669.94E-03
			15.00		667.42E-03
			18.00		663.49E-03
			21.00		663.47E-03
			24.00		660.06E-03
			27.00		661.85E-03
			30.00		657.25E-03
			33.00		655.85E-03
			36.00		652.66E-03
			39.00		641.90E-03
			42.00		629.70E-03
			45.00		595.61E-03
			48.00		428.29E-03
			51.00		186.66E-03
			54.00		98.016E-03
			57.00		70.122E-03
			60.00		56.869E-03
			63.00		49.106E-03
			66.00		43.323E-03
			69.00		39.015E-03
			72.00		35.052E-03
			75.00		32.534E-03
			78.00		27.974E-03
			81.00		26.810E-03
			84.00		24.816E-03
			87.00		22.881E-03
			90.00		20.877E-03
			93.00		19.734E-03
			96.00		18.365E-03
			99.00		16.726E-03
			102.00		14.701E-03
			105.00		14.214E-03
			108.00		13.671E-03
			111.00		12.604E-03
			114.00		11.770E-03
			117.00		11.645E-03
			120.00		10.681E-03
			123.00		9.8967E-03
			126.00		8.8418E-03
		END_DATA
	END_SCAN  11
	BEGIN_SCAN  12
		TASK_NAME=MODE_INTERVAL
		PROGRAM=BeamAdjust 1.2
		MEAS_DATE=07-Oct-2010 13:47:56
		LINAC=A4
		MODALITY=X
		INPLANE_AXIS_DIR=TARGET_GUN
		CROSSPLANE_AXIS_DIR=LEFT_RIGHT
		DEPTH_AXIS_DIR=UP_DOWN
		ENERGY=6.00
		SSD=950.00
		WEDGE=None
		FIELD_INPLANE=100.00
		FIELD_CROSSPLANE=100.00
		FIELD_TYPE=RECTANGULAR
		GANTRY=0.00
		GANTRY_UPRIGHT_POSITION=0
		GANTRY_ROTATION=CW
		COLL_ANGLE=90.00
		COLL_OFFSET_INPLANE=0.00
		COLL_OFFSET_CROSSPLANE=0.00
		SCAN_DEVICE=STARCHECK
		ELECTROMETER=2D_ARRAY_INTERFACE
		DETECTOR=STARCHECK
		SCAN_CURVETYPE=INPLANE_PROFILE
		SCAN_DEPTH=0.00
		SCAN_OFFAXIS_CROSSPLANE=50.00
		SCAN_ANGLE=0.00
		SCAN_DIAGONAL=NOT_DIAGONAL
		MEAS_PRESET=TIME_PRESET
		MEAS_TIME=10.000
		MEAS_UNIT=GY
		PRESSURE=1013.25
		TEMPERATURE=20.00
		NORM_TEMPERATURE=20.00
		CORRECTION_FACTOR=1.0000
		CORRECTIONS=AIR_DENSITY_CORR;
		BEGIN_DATA
			-30.00		593.38E-03
			-15.00		599.17E-03
			15.00		599.19E-03
			30.00		597.88E-03
		END_DATA
	END_SCAN  12
	BEGIN_SCAN  13
		TASK_NAME=MODE_INTERVAL
		PROGRAM=BeamAdjust 1.2
		MEAS_DATE=07-Oct-2010 13:47:56
		LINAC=A4
		MODALITY=X
		INPLANE_AXIS_DIR=TARGET_GUN
		CROSSPLANE_AXIS_DIR=LEFT_RIGHT
		DEPTH_AXIS_DIR=UP_DOWN
		ENERGY=6.00
		SSD=950.00
		WEDGE=None
		FIELD_INPLANE=100.00
		FIELD_CROSSPLANE=100.00
		FIELD_TYPE=RECTANGULAR
		GANTRY=0.00
		GANTRY_UPRIGHT_POSITION=0
		GANTRY_ROTATION=CW
		COLL_ANGLE=90.00
		COLL_OFFSET_INPLANE=0.00
		COLL_OFFSET_CROSSPLANE=0.00
		SCAN_DEVICE=STARCHECK
		ELECTROMETER=2D_ARRAY_INTERFACE
		DETECTOR=STARCHECK
		SCAN_CURVETYPE=INPLANE_PROFILE
		SCAN_DEPTH=0.00
		SCAN_OFFAXIS_CROSSPLANE=100.00
		SCAN_ANGLE=0.00
		SCAN_DIAGONAL=NOT_DIAGONAL
		MEAS_PRESET=TIME_PRESET
		MEAS_TIME=10.000
		MEAS_UNIT=GY
		PRESSURE=1013.25
		TEMPERATURE=20.00
		NORM_TEMPERATURE=20.00
		CORRECTION_FACTOR=1.0000
		CORRECTIONS=AIR_DENSITY_CORR;
		BEGIN_DATA
			-60.00		8.9346E-03
			-30.00		11.677E-03
			30.00		11.374E-03
			60.00		8.2194E-03
		END_DATA
	END_SCAN  13
	BEGIN_SCAN  14
		TASK_NAME=MODE_INTERVAL
		PROGRAM=BeamAdjust 1.2
		MEAS_DATE=07-Oct-2010 13:47:56
		LINAC=A4
		MODALITY=X
		INPLANE_AXIS_DIR=TARGET_GUN
		CROSSPLANE_AXIS_DIR=LEFT_RIGHT
		DEPTH_AXIS_DIR=UP_DOWN
		ENERGY=6.00
		SSD=950.00
		WEDGE=None
		FIELD_INPLANE=100.00
		FIELD_CROSSPLANE=100.00
		FIELD_TYPE=RECTANGULAR
		GANTRY=0.00
		GANTRY_UPRIGHT_POSITION=0
		GANTRY_ROTATION=CW
		COLL_ANGLE=90.00
		COLL_OFFSET_INPLANE=0.00
		COLL_OFFSET_CROSSPLANE=0.00
		SCAN_DEVICE=STARCHECK
		ELECTROMETER=2D_ARRAY_INTERFACE
		DETECTOR=STARCHECK
		SCAN_CURVETYPE=INPLANE_PROFILE
		SCAN_DEPTH=0.00
		SCAN_OFFAXIS_CROSSPLANE=130.00
		SCAN_ANGLE=0.00
		SCAN_DIAGONAL=NOT_DIAGONAL
		MEAS_PRESET=TIME_PRESET
		MEAS_TIME=10.000
		MEAS_UNIT=GY
		PRESSURE=1013.25
		TEMPERATURE=20.00
		NORM_TEMPERATURE=20.00
		CORRECTION_FACTOR=1.0000
		CORRECTIONS=AIR_DENSITY_CORR;
		BEGIN_DATA
			-130.00		2.3923E-03
			-125.00		2.8728E-03
			-120.00		2.4905E-03
			-115.00		2.9019E-03
			-110.00		3.0725E-03
			-105.00		3.0856E-03
			-100.00		3.6108E-03
			-95.00		3.1830E-03
			-90.00		3.3130E-03
			-85.00		4.1055E-03
			-80.00		3.8849E-03
			-75.00		4.1434E-03
			-70.00		4.6515E-03
			-65.00		4.5236E-03
			-60.00		5.0835E-03
			-55.00		4.8108E-03
			-50.00		4.9678E-03
			-45.00		5.3038E-03
			-40.00		5.4505E-03
			-35.00		5.9266E-03
			-30.00		6.5258E-03
			-25.00		5.7195E-03
			-20.00		5.9500E-03
			-15.00		5.8610E-03
			-10.00		5.5520E-03
			-5.00		6.2673E-03
			0.00		6.5388E-03
			5.00		6.3721E-03
			10.00		6.4759E-03
			15.00		5.7895E-03
			20.00		6.1652E-03
			25.00		6.2102E-03
			30.00		5.2954E-03
			35.00		5.5662E-03
			40.00		5.9167E-03
			45.00		5.6100E-03
			50.00		5.0168E-03
			55.00		5.3707E-03
			60.00		4.9543E-03
			65.00		4.3548E-03
			70.00		4.0891E-03
			75.00		4.4356E-03
			80.00		4.2775E-03
			85.00		4.1795E-03
			90.00		3.3693E-03
			95.00		3.4573E-03
			100.00		3.7799E-03
			105.00		3.2823E-03
			110.00		2.7536E-03
			115.00		2.9053E-03
			120.00		2.8642E-03
			125.00		2.4069E-03
			130.00		2.3432E-03
		END_DATA
	END_SCAN  14
	BEGIN_SCAN  15
		TASK_NAME=MODE_INTERVAL
		PROGRAM=BeamAdjust 1.2
		MEAS_DATE=07-Oct-2010 13:47:56
		LINAC=A4
		MODALITY=X
		INPLANE_AXIS_DIR=TARGET_GUN
		CROSSPLANE_AXIS_DIR=LEFT_RIGHT
		DEPTH_AXIS_DIR=UP_DOWN
		ENERGY=6.00
		SSD=950.00
		WEDGE=None
		FIELD_INPLANE=100.00
		FIELD_CROSSPLANE=100.00
		FIELD_TYPE=RECTANGULAR
		GANTRY=0.00
		GANTRY_UPRIGHT_POSITION=0
		GANTRY_ROTATION=CW
		COLL_ANGLE=90.00
		COLL_OFFSET_INPLANE=0.00
		COLL_OFFSET_CROSSPLANE=0.00
		SCAN_DEVICE=STARCHECK
		ELECTROMETER=2D_ARRAY_INTERFACE
		DETECTOR=STARCHECK
		SCAN_CURVETYPE=INPLANE_PROFILE
		SCAN_DEPTH=0.00
		SCAN_OFFAXIS_CROSSPLANE=0.00
		SCAN_ANGLE=0.00
		SCAN_DIAGONAL=FIRST_DIAGONAL
		MEAS_PRESET=TIME_PRESET
		MEAS_TIME=10.000
		MEAS_UNIT=GY
		PRESSURE=1013.25
		TEMPERATURE=20.00
		NORM_TEMPERATURE=20.00
		CORRECTION_FACTOR=1.0000
		CORRECTIONS=AIR_DENSITY_CORR;
		BEGIN_DATA
			-172.40		2.3816E-03
			-169.40		3.2573E-03
			-166.40		3.8770E-03
			-163.40		3.8704E-03
			-160.40		3.7521E-03
			-157.40		4.2644E-03
			-154.40		3.8200E-03
			-151.40		3.8412E-03
			-148.40		4.4535E-03
			-145.40		5.7928E-03
			-142.40		5.4341E-03
			-139.40		5.7475E-03
			-136.40		5.8129E-03
			-133.40		6.8590E-03
			-130.40		6.8542E-03
			-127.40		7.1968E-03
			-124.40		7.8349E-03
			-121.40		8.6473E-03
			-118.40		9.2310E-03
			-115.40		9.8924E-03
			-112.40		10.646E-03
			-109.40		11.882E-03
			-106.40		12.666E-03
			-103.40		13.820E-03
			-100.40		14.621E-03
			-97.40		16.617E-03
			-94.40		18.138E-03
			-91.40		19.998E-03
			-88.40		22.607E-03
			-85.40		24.997E-03
			-82.40		28.201E-03
			-79.40		32.587E-03
			-76.40		38.719E-03
			-73.40		52.743E-03
			-70.40		92.192E-03
			-67.40		226.85E-03
			-64.40		413.78E-03
			-61.40		545.20E-03
			-58.40		600.63E-03
			-55.40		624.12E-03
			-52.40		635.61E-03
			-49.40		643.07E-03
			-46.40		646.78E-03
			-43.40		650.13E-03
			-40.40		653.24E-03
			-37.40		658.63E-03
			-34.40		658.17E-03
			-31.40		660.75E-03
			-28.40		659.66E-03
			-25.40		662.80E-03
			-22.40		662.88E-03
			-19.40		663.35E-03
			-16.40		666.50E-03
			-13.40		670.10E-03
			0.00		667.07E-03
			13.40		672.55E-03
			16.40		668.00E-03
			19.40		667.36E-03
			22.40		666.12E-03
			25.40		665.18E-03
			28.40		664.04E-03
			31.40		661.92E-03
			34.40		659.42E-03
			37.40		662.15E-03
			40.40		659.24E-03
			43.40		656.32E-03
			46.40		655.72E-03
			49.40		649.86E-03
			52.40		644.83E-03
			55.40		635.05E-03
			58.40		623.49E-03
			61.40		597.79E-03
			64.40		524.89E-03
			67.40		390.46E-03
			70.40		229.66E-03
			73.40		105.49E-03
			76.40		57.752E-03
			79.40		42.122E-03
			82.40		34.744E-03
			85.40		29.756E-03
			88.40		26.735E-03
			91.40		23.199E-03
			94.40		21.451E-03
			97.40		18.908E-03
			100.40		16.954E-03
			103.40		16.067E-03
			106.40		14.733E-03
			109.40		13.267E-03
			112.40		11.282E-03
			115.40		10.916E-03
			118.40		9.9796E-03
			121.40		9.0811E-03
			124.40		8.5931E-03
			127.40		8.1413E-03
			130.40		8.2517E-03
			133.40		6.4892E-03
			136.40		5.8767E-03
			139.40		5.5492E-03
			142.40		5.4479E-03
			145.40		5.3345E-03
			148.40		5.5529E-03
			151.40		4.5050E-03
			154.40		4.5280E-03
			157.40		4.1132E-03
			160.40		3.3715E-03
			163.40		3.1857E-03
			166.40		3.5266E-03
			169.40		3.5527E-03
			172.40		3.7533E-03
		END_DATA
	END_SCAN  15
	BEGIN_SCAN  16
		TASK_NAME=MODE_INTERVAL
		PROGRAM=BeamAdjust 1.2
		MEAS_DATE=07-Oct-2010 13:47:56
		LINAC=A4
		MODALITY=X
		INPLANE_AXIS_DIR=GUN_TARGET
		CROSSPLANE_AXIS_DIR=LEFT_RIGHT
		DEPTH_AXIS_DIR=UP_DOWN
		ENERGY=6.00
		SSD=950.00
		WEDGE=None
		FIELD_INPLANE=100.00
		FIELD_CROSSPLANE=100.00
		FIELD_TYPE=RECTANGULAR
		GANTRY=0.00
		GANTRY_UPRIGHT_POSITION=0
		GANTRY_ROTATION=CW
		COLL_ANGLE=90.00
		COLL_OFFSET_INPLANE=0.00
		COLL_OFFSET_CROSSPLANE=0.00
		SCAN_DEVICE=STARCHECK
		ELECTROMETER=2D_ARRAY_INTERFACE
		DETECTOR=STARCHECK
		SCAN_CURVETYPE=INPLANE_PROFILE
		SCAN_DEPTH=0.00
		SCAN_OFFAXIS_CROSSPLANE=0.00
		SCAN_ANGLE=0.00
		SCAN_DIAGONAL=SECOND_DIAGONAL
		MEAS_PRESET=TIME_PRESET
		MEAS_TIME=10.000
		MEAS_UNIT=GY
		PRESSURE=1013.25
		TEMPERATURE=20.00
		NORM_TEMPERATURE=20.00
		CORRECTION_FACTOR=1.0000
		CORRECTIONS=AIR_DENSITY_CORR;
		BEGIN_DATA
			-172.40		3.2057E-03
			-169.40		3.2211E-03
			-166.40		3.3450E-03
			-163.40		3.7783E-03
			-160.40		4.2570E-03
			-157.40		4.0029E-03
			-154.40		4.7313E-03
			-151.40		4.9826E-03
			-148.40		5.0646E-03
			-145.40		5.1562E-03
			-142.40		5.9361E-03
			-139.40		6.2709E-03
			-136.40		5.9971E-03
			-133.40		7.1040E-03
			-130.40		7.5062E-03
			-127.40		8.5221E-03
			-124.40		8.9882E-03
			-121.40		9.9505E-03
			-118.40		10.539E-03
			-115.40		11.071E-03
			-112.40		11.571E-03
			-109.40		13.280E-03
			-106.40		14.572E-03
			-103.40		15.960E-03
			-100.40		17.595E-03
			-97.40		19.371E-03
			-94.40		20.832E-03
			-91.40		23.925E-03
			-88.40		26.190E-03
			-85.40		30.281E-03
			-82.40		35.829E-03
			-79.40		46.490E-03
			-76.40		69.228E-03
			-73.40		153.76E-03
			-70.40		341.67E-03
			-67.40		506.49E-03
			-64.40		589.15E-03
			-61.40		621.11E-03
			-58.40		637.37E-03
			-55.40		644.62E-03
			-52.40		652.91E-03
			-49.40		656.46E-03
			-46.40		658.79E-03
			-43.40		661.58E-03
			-40.40		663.40E-03
			-37.40		667.15E-03
			-34.40		665.57E-03
			-31.40		666.34E-03
			-28.40		668.25E-03
			-25.40		667.09E-03
			-22.40		665.82E-03
			-19.40		669.92E-03
			-16.40		671.02E-03
			-13.40		672.89E-03
			0.00		667.07E-03
			13.40		669.86E-03
			16.40		666.92E-03
			19.40		664.51E-03
			22.40		661.70E-03
			25.40		661.70E-03
			28.40		660.40E-03
			31.40		658.27E-03
			34.40		655.08E-03
			37.40		654.09E-03
			40.40		652.19E-03
			43.40		649.63E-03
			46.40		646.88E-03
			49.40		641.43E-03
			52.40		629.72E-03
			55.40		615.78E-03
			58.40		589.99E-03
			61.40		514.47E-03
			64.40		345.82E-03
			67.40		153.31E-03
			70.40		70.328E-03
			73.40		45.894E-03
			76.40		36.066E-03
			79.40		30.412E-03
			82.40		27.316E-03
			85.40		24.554E-03
			88.40		21.854E-03
			91.40		20.102E-03
			94.40		17.878E-03
			97.40		16.647E-03
			100.40		14.265E-03
			103.40		13.253E-03
			106.40		12.246E-03
			109.40		11.138E-03
			112.40		11.222E-03
			115.40		9.9021E-03
			118.40		8.6995E-03
			121.40		8.2474E-03
			124.40		7.6278E-03
			127.40		7.1785E-03
			130.40		6.9232E-03
			133.40		6.5283E-03
			136.40		5.8809E-03
			139.40		6.0673E-03
			142.40		5.4472E-03
			145.40		5.2437E-03
			148.40		4.8351E-03
			151.40		4.2515E-03
			154.40		4.7962E-03
			157.40		4.1883E-03
			160.40		3.8792E-03
			163.40		3.9034E-03
			166.40		3.5701E-03
			169.40		3.0482E-03
			172.40		2.7463E-03
		END_DATA
	END_SCAN  16
END_SCAN_DATA
