BEGIN_SCAN_DATA
	FORMAT=CC-Export V1.9                  
	FILE_CREATION_DATE=07-Oct-2010 13:47:29
	LAST_MODIFIED=07-Oct-2010 13:47:29
	BEGIN_SCAN  1
		TASK_NAME=MODE_INTERVAL
		PROGRAM=BeamAdjust 1.2
		MEAS_DATE=07-Oct-2010 13:47:29
		LINAC=A4
		MODALITY=X
		INPLANE_AXIS_DIR=TARGET_GUN
		CROSSPLANE_AXIS_DIR=LEFT_RIGHT
		DEPTH_AXIS_DIR=UP_DOWN
		ENERGY=6.00
		SSD=950.00
		WEDGE=None
		FIELD_INPLANE=100.00
		FIELD_CROSSPLANE=100.00
		FIELD_TYPE=RECTANGULAR
		GANTRY=0.00
		GANTRY_UPRIGHT_POSITION=0
		GANTRY_ROTATION=CW
		COLL_ANGLE=90.00
		COLL_OFFSET_INPLANE=0.00
		COLL_OFFSET_CROSSPLANE=0.00
		SCAN_DEVICE=STARCHECK
		ELECTROMETER=2D_ARRAY_INTERFACE
		DETECTOR=STARCHECK
		SCAN_CURVETYPE=CROSSPLANE_PROFILE
		SCAN_DEPTH=0.00
		SCAN_OFFAXIS_INPLANE=-130.00
		SCAN_ANGLE=0.00
		SCAN_DIAGONAL=NOT_DIAGONAL
		MEAS_PRESET=TIME_PRESET
		MEAS_TIME=10.000
		MEAS_UNIT=GY
		PRESSURE=1013.25
		TEMPERATURE=20.00
		NORM_TEMPERATURE=20.00
		CORRECTION_FACTOR=1.0000
		CORRECTIONS=AIR_DENSITY_CORR;
		BEGIN_DATA
			-130.00		2.6470E-03
			-80.00		4.4391E-03
			-40.00		6.9521E-03
			40.00		7.5011E-03
			80.00		4.0173E-03
			130.00		2.0062E-03
		END_DATA
	END_SCAN  1
	BEGIN_SCAN  2
		TASK_NAME=MODE_INTERVAL
		PROGRAM=BeamAdjust 1.2
		MEAS_DATE=07-Oct-2010 13:47:29
		LINAC=A4
		MODALITY=X
		INPLANE_AXIS_DIR=TARGET_GUN
		CROSSPLANE_AXIS_DIR=LEFT_RIGHT
		DEPTH_AXIS_DIR=UP_DOWN
		ENERGY=6.00
		SSD=950.00
		WEDGE=None
		FIELD_INPLANE=100.00
		FIELD_CROSSPLANE=100.00
		FIELD_TYPE=RECTANGULAR
		GANTRY=0.00
		GANTRY_UPRIGHT_POSITION=0
		GANTRY_ROTATION=CW
		COLL_ANGLE=90.00
		COLL_OFFSET_INPLANE=0.00
		COLL_OFFSET_CROSSPLANE=0.00
		SCAN_DEVICE=STARCHECK
		ELECTROMETER=2D_ARRAY_INTERFACE
		DETECTOR=STARCHECK
		SCAN_CURVETYPE=CROSSPLANE_PROFILE
		SCAN_DEPTH=0.00
		SCAN_OFFAXIS_INPLANE=-100.00
		SCAN_ANGLE=0.00
		SCAN_DIAGONAL=NOT_DIAGONAL
		MEAS_PRESET=TIME_PRESET
		MEAS_TIME=10.000
		MEAS_UNIT=GY
		PRESSURE=1013.25
		TEMPERATURE=20.00
		NORM_TEMPERATURE=20.00
		CORRECTION_FACTOR=1.0000
		CORRECTIONS=AIR_DENSITY_CORR;
		BEGIN_DATA
			-60.00		10.026E-03
			-30.00		14.440E-03
			30.00		15.359E-03
			60.00		10.859E-03
		END_DATA
	END_SCAN  2
	BEGIN_SCAN  3
		TASK_NAME=MODE_INTERVAL
		PROGRAM=BeamAdjust 1.2
		MEAS_DATE=07-Oct-2010 13:47:29
		LINAC=A4
		MODALITY=X
		INPLANE_AXIS_DIR=TARGET_GUN
		CROSSPLANE_AXIS_DIR=LEFT_RIGHT
		DEPTH_AXIS_DIR=UP_DOWN
		ENERGY=6.00
		SSD=950.00
		WEDGE=None
		FIELD_INPLANE=100.00
		FIELD_CROSSPLANE=100.00
		FIELD_TYPE=RECTANGULAR
		GANTRY=0.00
		GANTRY_UPRIGHT_POSITION=0
		GANTRY_ROTATION=CW
		COLL_ANGLE=90.00
		COLL_OFFSET_INPLANE=0.00
		COLL_OFFSET_CROSSPLANE=0.00
		SCAN_DEVICE=STARCHECK
		ELECTROMETER=2D_ARRAY_INTERFACE
		DETECTOR=STARCHECK
		SCAN_CURVETYPE=CROSSPLANE_PROFILE
		SCAN_DEPTH=0.00
		SCAN_OFFAXIS_INPLANE=-50.00
		SCAN_ANGLE=0.00
		SCAN_DIAGONAL=NOT_DIAGONAL
		MEAS_PRESET=TIME_PRESET
		MEAS_TIME=10.000
		MEAS_UNIT=GY
		PRESSURE=1013.25
		TEMPERATURE=20.00
		NORM_TEMPERATURE=20.00
		CORRECTION_FACTOR=1.0000
		CORRECTIONS=AIR_DENSITY_CORR;
		BEGIN_DATA
			-30.00		386.68E-03
			-15.00		368.95E-03
			15.00		388.95E-03
			30.00		393.37E-03
		END_DATA
	END_SCAN  3
	BEGIN_SCAN  4
		TASK_NAME=MODE_INTERVAL
		PROGRAM=BeamAdjust 1.2
		MEAS_DATE=07-Oct-2010 13:47:29
		LINAC=A4
		MODALITY=X
		INPLANE_AXIS_DIR=TARGET_GUN
		CROSSPLANE_AXIS_DIR=LEFT_RIGHT
		DEPTH_AXIS_DIR=UP_DOWN
		ENERGY=6.00
		SSD=950.00
		WEDGE=None
		FIELD_INPLANE=100.00
		FIELD_CROSSPLANE=100.00
		FIELD_TYPE=RECTANGULAR
		GANTRY=0.00
		GANTRY_UPRIGHT_POSITION=0
		GANTRY_ROTATION=CW
		COLL_ANGLE=90.00
		COLL_OFFSET_INPLANE=0.00
		COLL_OFFSET_CROSSPLANE=0.00
		SCAN_DEVICE=STARCHECK
		ELECTROMETER=2D_ARRAY_INTERFACE
		DETECTOR=STARCHECK
		SCAN_CURVETYPE=CROSSPLANE_PROFILE
		SCAN_DEPTH=0.00
		SCAN_OFFAXIS_INPLANE=0.00
		SCAN_ANGLE=0.00
		SCAN_DIAGONAL=NOT_DIAGONAL
		MEAS_PRESET=TIME_PRESET
		MEAS_TIME=10.000
		MEAS_UNIT=GY
		PRESSURE=1013.25
		TEMPERATURE=20.00
		NORM_TEMPERATURE=20.00
		CORRECTION_FACTOR=1.0000
		CORRECTIONS=AIR_DENSITY_CORR;
		BEGIN_DATA
			-126.00		6.3141E-03
			-123.00		7.2725E-03
			-120.00		7.9432E-03
			-117.00		8.2902E-03
			-114.00		8.6132E-03
			-111.00		8.9421E-03
			-108.00		9.1939E-03
			-105.00		10.740E-03
			-102.00		10.901E-03
			-99.00		11.933E-03
			-96.00		12.843E-03
			-93.00		14.204E-03
			-90.00		15.260E-03
			-87.00		16.349E-03
			-84.00		19.097E-03
			-81.00		19.319E-03
			-78.00		21.412E-03
			-75.00		23.903E-03
			-72.00		25.648E-03
			-69.00		29.622E-03
			-66.00		33.563E-03
			-63.00		37.526E-03
			-60.00		42.812E-03
			-57.00		52.141E-03
			-54.00		65.274E-03
			-51.00		97.100E-03
			-48.00		202.84E-03
			-45.00		494.59E-03
			-42.00		604.43E-03
			-39.00		635.57E-03
			-36.00		647.75E-03
			-33.00		650.62E-03
			-30.00		654.17E-03
			-27.00		657.49E-03
			-24.00		660.85E-03
			-21.00		660.79E-03
			-18.00		666.29E-03
			-15.00		665.89E-03
			-12.00		666.67E-03
			-9.00		670.64E-03
			-6.00		670.34E-03
			0.00		667.93E-03
			6.00		670.66E-03
			9.00		670.02E-03
			12.00		668.63E-03
			15.00		669.08E-03
			18.00		668.92E-03
			21.00		666.30E-03
			24.00		662.76E-03
			27.00		667.37E-03
			30.00		666.08E-03
			33.00		664.93E-03
			36.00		662.98E-03
			39.00		660.15E-03
			42.00		654.16E-03
			45.00		645.66E-03
			48.00		626.30E-03
			51.00		571.51E-03
			54.00		330.91E-03
			57.00		122.98E-03
			60.00		75.558E-03
			63.00		57.607E-03
			66.00		46.609E-03
			69.00		40.290E-03
			72.00		35.126E-03
			75.00		31.054E-03
			78.00		27.508E-03
			81.00		24.948E-03
			84.00		22.518E-03
			87.00		19.952E-03
			90.00		18.874E-03
			93.00		16.984E-03
			96.00		14.959E-03
			99.00		14.089E-03
			102.00		12.797E-03
			105.00		12.128E-03
			108.00		11.709E-03
			111.00		10.757E-03
			114.00		9.9216E-03
			117.00		9.0785E-03
			120.00		8.1868E-03
			123.00		8.1627E-03
			126.00		8.1482E-03
		END_DATA
	END_SCAN  4
	BEGIN_SCAN  5
		TASK_NAME=MODE_INTERVAL
		PROGRAM=BeamAdjust 1.2
		MEAS_DATE=07-Oct-2010 13:47:29
		LINAC=A4
		MODALITY=X
		INPLANE_AXIS_DIR=TARGET_GUN
		CROSSPLANE_AXIS_DIR=LEFT_RIGHT
		DEPTH_AXIS_DIR=UP_DOWN
		ENERGY=6.00
		SSD=950.00
		WEDGE=None
		FIELD_INPLANE=100.00
		FIELD_CROSSPLANE=100.00
		FIELD_TYPE=RECTANGULAR
		GANTRY=0.00
		GANTRY_UPRIGHT_POSITION=0
		GANTRY_ROTATION=CW
		COLL_ANGLE=90.00
		COLL_OFFSET_INPLANE=0.00
		COLL_OFFSET_CROSSPLANE=0.00
		SCAN_DEVICE=STARCHECK
		ELECTROMETER=2D_ARRAY_INTERFACE
		DETECTOR=STARCHECK
		SCAN_CURVETYPE=CROSSPLANE_PROFILE
		SCAN_DEPTH=0.00
		SCAN_OFFAXIS_INPLANE=50.00
		SCAN_ANGLE=0.00
		SCAN_DIAGONAL=NOT_DIAGONAL
		MEAS_PRESET=TIME_PRESET
		MEAS_TIME=10.000
		MEAS_UNIT=GY
		PRESSURE=1013.25
		TEMPERATURE=20.00
		NORM_TEMPERATURE=20.00
		CORRECTION_FACTOR=1.0000
		CORRECTIONS=AIR_DENSITY_CORR;
		BEGIN_DATA
			-30.00		264.48E-03
			-15.00		287.25E-03
			15.00		265.28E-03
			30.00		258.34E-03
		END_DATA
	END_SCAN  5
	BEGIN_SCAN  6
		TASK_NAME=MODE_INTERVAL
		PROGRAM=BeamAdjust 1.2
		MEAS_DATE=07-Oct-2010 13:47:29
		LINAC=A4
		MODALITY=X
		INPLANE_AXIS_DIR=TARGET_GUN
		CROSSPLANE_AXIS_DIR=LEFT_RIGHT
		DEPTH_AXIS_DIR=UP_DOWN
		ENERGY=6.00
		SSD=950.00
		WEDGE=None
		FIELD_INPLANE=100.00
		FIELD_CROSSPLANE=100.00
		FIELD_TYPE=RECTANGULAR
		GANTRY=0.00
		GANTRY_UPRIGHT_POSITION=0
		GANTRY_ROTATION=CW
		COLL_ANGLE=90.00
		COLL_OFFSET_INPLANE=0.00
		COLL_OFFSET_CROSSPLANE=0.00
		SCAN_DEVICE=STARCHECK
		ELECTROMETER=2D_ARRAY_INTERFACE
		DETECTOR=STARCHECK
		SCAN_CURVETYPE=CROSSPLANE_PROFILE
		SCAN_DEPTH=0.00
		SCAN_OFFAXIS_INPLANE=100.00
		SCAN_ANGLE=0.00
		SCAN_DIAGONAL=NOT_DIAGONAL
		MEAS_PRESET=TIME_PRESET
		MEAS_TIME=10.000
		MEAS_UNIT=GY
		PRESSURE=1013.25
		TEMPERATURE=20.00
		NORM_TEMPERATURE=20.00
		CORRECTION_FACTOR=1.0000
		CORRECTIONS=AIR_DENSITY_CORR;
		BEGIN_DATA
			-60.00		10.090E-03
			-30.00		14.476E-03
			30.00		14.952E-03
			60.00		9.9462E-03
		END_DATA
	END_SCAN  6
	BEGIN_SCAN  7
		TASK_NAME=MODE_INTERVAL
		PROGRAM=BeamAdjust 1.2
		MEAS_DATE=07-Oct-2010 13:47:29
		LINAC=A4
		MODALITY=X
		INPLANE_AXIS_DIR=TARGET_GUN
		CROSSPLANE_AXIS_DIR=LEFT_RIGHT
		DEPTH_AXIS_DIR=UP_DOWN
		ENERGY=6.00
		SSD=950.00
		WEDGE=None
		FIELD_INPLANE=100.00
		FIELD_CROSSPLANE=100.00
		FIELD_TYPE=RECTANGULAR
		GANTRY=0.00
		GANTRY_UPRIGHT_POSITION=0
		GANTRY_ROTATION=CW
		COLL_ANGLE=90.00
		COLL_OFFSET_INPLANE=0.00
		COLL_OFFSET_CROSSPLANE=0.00
		SCAN_DEVICE=STARCHECK
		ELECTROMETER=2D_ARRAY_INTERFACE
		DETECTOR=STARCHECK
		SCAN_CURVETYPE=CROSSPLANE_PROFILE
		SCAN_DEPTH=0.00
		SCAN_OFFAXIS_INPLANE=130.00
		SCAN_ANGLE=0.00
		SCAN_DIAGONAL=NOT_DIAGONAL
		MEAS_PRESET=TIME_PRESET
		MEAS_TIME=10.000
		MEAS_UNIT=GY
		PRESSURE=1013.25
		TEMPERATURE=20.00
		NORM_TEMPERATURE=20.00
		CORRECTION_FACTOR=1.0000
		CORRECTIONS=AIR_DENSITY_CORR;
		BEGIN_DATA
			-130.00		2.2404E-03
			-80.00		3.9857E-03
			-40.00		7.5201E-03
			40.00		7.5660E-03
			80.00		4.4910E-03
			130.00		2.5827E-03
		END_DATA
	END_SCAN  7
	BEGIN_SCAN  8
		TASK_NAME=MODE_INTERVAL
		PROGRAM=BeamAdjust 1.2
		MEAS_DATE=07-Oct-2010 13:47:29
		LINAC=A4
		MODALITY=X
		INPLANE_AXIS_DIR=TARGET_GUN
		CROSSPLANE_AXIS_DIR=LEFT_RIGHT
		DEPTH_AXIS_DIR=UP_DOWN
		ENERGY=6.00
		SSD=950.00
		WEDGE=None
		FIELD_INPLANE=100.00
		FIELD_CROSSPLANE=100.00
		FIELD_TYPE=RECTANGULAR
		GANTRY=0.00
		GANTRY_UPRIGHT_POSITION=0
		GANTRY_ROTATION=CW
		COLL_ANGLE=90.00
		COLL_OFFSET_INPLANE=0.00
		COLL_OFFSET_CROSSPLANE=0.00
		SCAN_DEVICE=STARCHECK
		ELECTROMETER=2D_ARRAY_INTERFACE
		DETECTOR=STARCHECK
		SCAN_CURVETYPE=INPLANE_PROFILE
		SCAN_DEPTH=0.00
		SCAN_OFFAXIS_CROSSPLANE=-130.00
		SCAN_ANGLE=0.00
		SCAN_DIAGONAL=NOT_DIAGONAL
		MEAS_PRESET=TIME_PRESET
		MEAS_TIME=10.000
		MEAS_UNIT=GY
		PRESSURE=1013.25
		TEMPERATURE=20.00
		NORM_TEMPERATURE=20.00
		CORRECTION_FACTOR=1.0000
		CORRECTIONS=AIR_DENSITY_CORR;
		BEGIN_DATA
			-130.00		2.6470E-03
			-125.00		2.6416E-03
			-120.00		3.6388E-03
			-115.00		3.3983E-03
			-110.00		3.2734E-03
			-105.00		3.4311E-03
			-100.00		4.0078E-03
			-95.00		4.1494E-03
			-90.00		4.2025E-03
			-85.00		4.2021E-03
			-80.00		4.0502E-03
			-75.00		4.7110E-03
			-70.00		4.7073E-03
			-65.00		5.0804E-03
			-60.00		4.9481E-03
			-55.00		5.7256E-03
			-50.00		5.0615E-03
			-45.00		4.5602E-03
			-40.00		4.9123E-03
			-35.00		5.2000E-03
			-30.00		5.3117E-03
			-25.00		4.9444E-03
			-20.00		4.9921E-03
			-15.00		5.1196E-03
			-10.00		5.0560E-03
			-5.00		6.1379E-03
			0.00		6.0054E-03
			5.00		6.3879E-03
			10.00		5.5204E-03
			15.00		5.4707E-03
			20.00		5.9099E-03
			25.00		4.7591E-03
			30.00		5.5020E-03
			35.00		5.3869E-03
			40.00		4.8119E-03
			45.00		5.0692E-03
			50.00		4.9179E-03
			55.00		4.4289E-03
			60.00		4.8418E-03
			65.00		4.0978E-03
			70.00		3.8156E-03
			75.00		3.9807E-03
			80.00		3.6429E-03
			85.00		3.4094E-03
			90.00		3.6273E-03
			95.00		3.4523E-03
			100.00		2.8906E-03
			105.00		2.9450E-03
			110.00		2.9362E-03
			115.00		2.6159E-03
			120.00		2.8382E-03
			125.00		2.8546E-03
			130.00		2.2404E-03
		END_DATA
	END_SCAN  8
	BEGIN_SCAN  9
		TASK_NAME=MODE_INTERVAL
		PROGRAM=BeamAdjust 1.2
		MEAS_DATE=07-Oct-2010 13:47:29
		LINAC=A4
		MODALITY=X
		INPLANE_AXIS_DIR=TARGET_GUN
		CROSSPLANE_AXIS_DIR=LEFT_RIGHT
		DEPTH_AXIS_DIR=UP_DOWN
		ENERGY=6.00
		SSD=950.00
		WEDGE=None
		FIELD_INPLANE=100.00
		FIELD_CROSSPLANE=100.00
		FIELD_TYPE=RECTANGULAR
		GANTRY=0.00
		GANTRY_UPRIGHT_POSITION=0
		GANTRY_ROTATION=CW
		COLL_ANGLE=90.00
		COLL_OFFSET_INPLANE=0.00
		COLL_OFFSET_CROSSPLANE=0.00
		SCAN_DEVICE=STARCHECK
		ELECTROMETER=2D_ARRAY_INTERFACE
		DETECTOR=STARCHECK
		SCAN_CURVETYPE=INPLANE_PROFILE
		SCAN_DEPTH=0.00
		SCAN_OFFAXIS_CROSSPLANE=-100.00
		SCAN_ANGLE=0.00
		SCAN_DIAGONAL=NOT_DIAGONAL
		MEAS_PRESET=TIME_PRESET
		MEAS_TIME=10.000
		MEAS_UNIT=GY
		PRESSURE=1013.25
		TEMPERATURE=20.00
		NORM_TEMPERATURE=20.00
		CORRECTION_FACTOR=1.0000
		CORRECTIONS=AIR_DENSITY_CORR;
		BEGIN_DATA
			-60.00		8.1270E-03
			-30.00		9.9702E-03
			30.00		9.3273E-03
			60.00		7.5272E-03
		END_DATA
	END_SCAN  9
	BEGIN_SCAN  10
		TASK_NAME=MODE_INTERVAL
		PROGRAM=BeamAdjust 1.2
		MEAS_DATE=07-Oct-2010 13:47:29
		LINAC=A4
		MODALITY=X
		INPLANE_AXIS_DIR=TARGET_GUN
		CROSSPLANE_AXIS_DIR=LEFT_RIGHT
		DEPTH_AXIS_DIR=UP_DOWN
		ENERGY=6.00
		SSD=950.00
		WEDGE=None
		FIELD_INPLANE=100.00
		FIELD_CROSSPLANE=100.00
		FIELD_TYPE=RECTANGULAR
		GANTRY=0.00
		GANTRY_UPRIGHT_POSITION=0
		GANTRY_ROTATION=CW
		COLL_ANGLE=90.00
		COLL_OFFSET_INPLANE=0.00
		COLL_OFFSET_CROSSPLANE=0.00
		SCAN_DEVICE=STARCHECK
		ELECTROMETER=2D_ARRAY_INTERFACE
		DETECTOR=STARCHECK
		SCAN_CURVETYPE=INPLANE_PROFILE
		SCAN_DEPTH=0.00
		SCAN_OFFAXIS_CROSSPLANE=-50.00
		SCAN_ANGLE=0.00
		SCAN_DIAGONAL=NOT_DIAGONAL
		MEAS_PRESET=TIME_PRESET
		MEAS_TIME=10.000
		MEAS_UNIT=GY
		PRESSURE=1013.25
		TEMPERATURE=20.00
		NORM_TEMPERATURE=20.00
		CORRECTION_FACTOR=1.0000
		CORRECTIONS=AIR_DENSITY_CORR;
		BEGIN_DATA
			-30.00		110.71E-03
			-15.00		111.78E-03
			15.00		107.68E-03
			30.00		100.93E-03
		END_DATA
	END_SCAN  10
	BEGIN_SCAN  11
		TASK_NAME=MODE_INTERVAL
		PROGRAM=BeamAdjust 1.2
		MEAS_DATE=07-Oct-2010 13:47:29
		LINAC=A4
		MODALITY=X
		INPLANE_AXIS_DIR=TARGET_GUN
		CROSSPLANE_AXIS_DIR=LEFT_RIGHT
		DEPTH_AXIS_DIR=UP_DOWN
		ENERGY=6.00
		SSD=950.00
		WEDGE=None
		FIELD_INPLANE=100.00
		FIELD_CROSSPLANE=100.00
		FIELD_TYPE=RECTANGULAR
		GANTRY=0.00
		GANTRY_UPRIGHT_POSITION=0
		GANTRY_ROTATION=CW
		COLL_ANGLE=90.00
		COLL_OFFSET_INPLANE=0.00
		COLL_OFFSET_CROSSPLANE=0.00
		SCAN_DEVICE=STARCHECK
		ELECTROMETER=2D_ARRAY_INTERFACE
		DETECTOR=STARCHECK
		SCAN_CURVETYPE=INPLANE_PROFILE
		SCAN_DEPTH=0.00
		SCAN_OFFAXIS_CROSSPLANE=0.00
		SCAN_ANGLE=0.00
		SCAN_DIAGONAL=NOT_DIAGONAL
		MEAS_PRESET=TIME_PRESET
		MEAS_TIME=10.000
		MEAS_UNIT=GY
		PRESSURE=1013.25
		TEMPERATURE=20.00
		NORM_TEMPERATURE=20.00
		CORRECTION_FACTOR=1.0000
		CORRECTIONS=AIR_DENSITY_CORR;
		BEGIN_DATA
			-126.00		9.4740E-03
			-123.00		9.2624E-03
			-120.00		10.574E-03
			-117.00		11.492E-03
			-114.00		12.042E-03
			-111.00		12.819E-03
			-108.00		13.672E-03
			-105.00		15.443E-03
			-102.00		16.347E-03
			-99.00		16.694E-03
			-96.00		18.254E-03
			-93.00		20.307E-03
			-90.00		21.813E-03
			-87.00		23.738E-03
			-84.00		25.731E-03
			-81.00		28.253E-03
			-78.00		30.761E-03
			-75.00		33.496E-03
			-72.00		37.141E-03
			-69.00		41.003E-03
			-66.00		46.244E-03
			-63.00		53.235E-03
			-60.00		62.836E-03
			-57.00		82.849E-03
			-54.00		134.65E-03
			-51.00		310.12E-03
			-48.00		559.13E-03
			-45.00		623.89E-03
			-42.00		643.85E-03
			-39.00		653.04E-03
			-36.00		658.42E-03
			-33.00		661.82E-03
			-30.00		665.49E-03
			-27.00		666.59E-03
			-24.00		665.93E-03
			-21.00		665.46E-03
			-18.00		671.48E-03
			-15.00		670.14E-03
			-12.00		671.46E-03
			-9.00		671.60E-03
			-6.00		668.92E-03
			0.00		667.93E-03
			6.00		672.72E-03
			9.00		672.06E-03
			12.00		671.16E-03
			15.00		668.71E-03
			18.00		664.48E-03
			21.00		664.24E-03
			24.00		660.77E-03
			27.00		662.55E-03
			30.00		658.55E-03
			33.00		655.90E-03
			36.00		653.73E-03
			39.00		642.64E-03
			42.00		630.64E-03
			45.00		596.99E-03
			48.00		432.48E-03
			51.00		188.57E-03
			54.00		99.242E-03
			57.00		70.419E-03
			60.00		57.095E-03
			63.00		49.223E-03
			66.00		43.853E-03
			69.00		39.013E-03
			72.00		35.734E-03
			75.00		31.928E-03
			78.00		28.250E-03
			81.00		26.656E-03
			84.00		24.762E-03
			87.00		22.937E-03
			90.00		21.234E-03
			93.00		19.762E-03
			96.00		18.268E-03
			99.00		16.643E-03
			102.00		15.501E-03
			105.00		14.109E-03
			108.00		13.802E-03
			111.00		12.651E-03
			114.00		12.231E-03
			117.00		11.171E-03
			120.00		10.697E-03
			123.00		10.116E-03
			126.00		8.8103E-03
		END_DATA
	END_SCAN  11
	BEGIN_SCAN  12
		TASK_NAME=MODE_INTERVAL
		PROGRAM=BeamAdjust 1.2
		MEAS_DATE=07-Oct-2010 13:47:29
		LINAC=A4
		MODALITY=X
		INPLANE_AXIS_DIR=TARGET_GUN
		CROSSPLANE_AXIS_DIR=LEFT_RIGHT
		DEPTH_AXIS_DIR=UP_DOWN
		ENERGY=6.00
		SSD=950.00
		WEDGE=None
		FIELD_INPLANE=100.00
		FIELD_CROSSPLANE=100.00
		FIELD_TYPE=RECTANGULAR
		GANTRY=0.00
		GANTRY_UPRIGHT_POSITION=0
		GANTRY_ROTATION=CW
		COLL_ANGLE=90.00
		COLL_OFFSET_INPLANE=0.00
		COLL_OFFSET_CROSSPLANE=0.00
		SCAN_DEVICE=STARCHECK
		ELECTROMETER=2D_ARRAY_INTERFACE
		DETECTOR=STARCHECK
		SCAN_CURVETYPE=INPLANE_PROFILE
		SCAN_DEPTH=0.00
		SCAN_OFFAXIS_CROSSPLANE=50.00
		SCAN_ANGLE=0.00
		SCAN_DIAGONAL=NOT_DIAGONAL
		MEAS_PRESET=TIME_PRESET
		MEAS_TIME=10.000
		MEAS_UNIT=GY
		PRESSURE=1013.25
		TEMPERATURE=20.00
		NORM_TEMPERATURE=20.00
		CORRECTION_FACTOR=1.0000
		CORRECTIONS=AIR_DENSITY_CORR;
		BEGIN_DATA
			-30.00		604.62E-03
			-15.00		610.29E-03
			15.00		609.60E-03
			30.00		607.96E-03
		END_DATA
	END_SCAN  12
	BEGIN_SCAN  13
		TASK_NAME=MODE_INTERVAL
		PROGRAM=BeamAdjust 1.2
		MEAS_DATE=07-Oct-2010 13:47:29
		LINAC=A4
		MODALITY=X
		INPLANE_AXIS_DIR=TARGET_GUN
		CROSSPLANE_AXIS_DIR=LEFT_RIGHT
		DEPTH_AXIS_DIR=UP_DOWN
		ENERGY=6.00
		SSD=950.00
		WEDGE=None
		FIELD_INPLANE=100.00
		FIELD_CROSSPLANE=100.00
		FIELD_TYPE=RECTANGULAR
		GANTRY=0.00
		GANTRY_UPRIGHT_POSITION=0
		GANTRY_ROTATION=CW
		COLL_ANGLE=90.00
		COLL_OFFSET_INPLANE=0.00
		COLL_OFFSET_CROSSPLANE=0.00
		SCAN_DEVICE=STARCHECK
		ELECTROMETER=2D_ARRAY_INTERFACE
		DETECTOR=STARCHECK
		SCAN_CURVETYPE=INPLANE_PROFILE
		SCAN_DEPTH=0.00
		SCAN_OFFAXIS_CROSSPLANE=100.00
		SCAN_ANGLE=0.00
		SCAN_DIAGONAL=NOT_DIAGONAL
		MEAS_PRESET=TIME_PRESET
		MEAS_TIME=10.000
		MEAS_UNIT=GY
		PRESSURE=1013.25
		TEMPERATURE=20.00
		NORM_TEMPERATURE=20.00
		CORRECTION_FACTOR=1.0000
		CORRECTIONS=AIR_DENSITY_CORR;
		BEGIN_DATA
			-60.00		9.0149E-03
			-30.00		11.107E-03
			30.00		12.244E-03
			60.00		8.4170E-03
		END_DATA
	END_SCAN  13
	BEGIN_SCAN  14
		TASK_NAME=MODE_INTERVAL
		PROGRAM=BeamAdjust 1.2
		MEAS_DATE=07-Oct-2010 13:47:29
		LINAC=A4
		MODALITY=X
		INPLANE_AXIS_DIR=TARGET_GUN
		CROSSPLANE_AXIS_DIR=LEFT_RIGHT
		DEPTH_AXIS_DIR=UP_DOWN
		ENERGY=6.00
		SSD=950.00
		WEDGE=None
		FIELD_INPLANE=100.00
		FIELD_CROSSPLANE=100.00
		FIELD_TYPE=RECTANGULAR
		GANTRY=0.00
		GANTRY_UPRIGHT_POSITION=0
		GANTRY_ROTATION=CW
		COLL_ANGLE=90.00
		COLL_OFFSET_INPLANE=0.00
		COLL_OFFSET_CROSSPLANE=0.00
		SCAN_DEVICE=STARCHECK
		ELECTROMETER=2D_ARRAY_INTERFACE
		DETECTOR=STARCHECK
		SCAN_CURVETYPE=INPLANE_PROFILE
		SCAN_DEPTH=0.00
		SCAN_OFFAXIS_CROSSPLANE=130.00
		SCAN_ANGLE=0.00
		SCAN_DIAGONAL=NOT_DIAGONAL
		MEAS_PRESET=TIME_PRESET
		MEAS_TIME=10.000
		MEAS_UNIT=GY
		PRESSURE=1013.25
		TEMPERATURE=20.00
		NORM_TEMPERATURE=20.00
		CORRECTION_FACTOR=1.0000
		CORRECTIONS=AIR_DENSITY_CORR;
		BEGIN_DATA
			-130.00		2.0062E-03
			-125.00		2.7185E-03
			-120.00		2.6456E-03
			-115.00		3.0724E-03
			-110.00		3.2841E-03
			-105.00		3.1511E-03
			-100.00		3.7951E-03
			-95.00		3.3033E-03
			-90.00		3.4152E-03
			-85.00		4.3871E-03
			-80.00		3.9276E-03
			-75.00		4.2203E-03
			-70.00		4.3199E-03
			-65.00		4.4351E-03
			-60.00		5.1380E-03
			-55.00		4.9879E-03
			-50.00		4.8674E-03
			-45.00		5.2477E-03
			-40.00		6.3060E-03
			-35.00		5.7048E-03
			-30.00		6.0343E-03
			-25.00		5.7715E-03
			-20.00		6.0815E-03
			-15.00		5.9260E-03
			-10.00		5.2981E-03
			-5.00		6.7394E-03
			0.00		6.8518E-03
			5.00		6.4044E-03
			10.00		6.5968E-03
			15.00		5.8543E-03
			20.00		6.2984E-03
			25.00		6.3184E-03
			30.00		5.8107E-03
			35.00		5.5025E-03
			40.00		5.7799E-03
			45.00		5.2823E-03
			50.00		5.0153E-03
			55.00		5.6079E-03
			60.00		4.9926E-03
			65.00		4.0653E-03
			70.00		4.5515E-03
			75.00		4.6561E-03
			80.00		4.1612E-03
			85.00		4.2719E-03
			90.00		3.7716E-03
			95.00		3.4335E-03
			100.00		4.1051E-03
			105.00		2.7921E-03
			110.00		2.5023E-03
			115.00		2.7506E-03
			120.00		2.8937E-03
			125.00		2.4010E-03
			130.00		2.5827E-03
		END_DATA
	END_SCAN  14
	BEGIN_SCAN  15
		TASK_NAME=MODE_INTERVAL
		PROGRAM=BeamAdjust 1.2
		MEAS_DATE=07-Oct-2010 13:47:29
		LINAC=A4
		MODALITY=X
		INPLANE_AXIS_DIR=TARGET_GUN
		CROSSPLANE_AXIS_DIR=LEFT_RIGHT
		DEPTH_AXIS_DIR=UP_DOWN
		ENERGY=6.00
		SSD=950.00
		WEDGE=None
		FIELD_INPLANE=100.00
		FIELD_CROSSPLANE=100.00
		FIELD_TYPE=RECTANGULAR
		GANTRY=0.00
		GANTRY_UPRIGHT_POSITION=0
		GANTRY_ROTATION=CW
		COLL_ANGLE=90.00
		COLL_OFFSET_INPLANE=0.00
		COLL_OFFSET_CROSSPLANE=0.00
		SCAN_DEVICE=STARCHECK
		ELECTROMETER=2D_ARRAY_INTERFACE
		DETECTOR=STARCHECK
		SCAN_CURVETYPE=INPLANE_PROFILE
		SCAN_DEPTH=0.00
		SCAN_OFFAXIS_CROSSPLANE=0.00
		SCAN_ANGLE=0.00
		SCAN_DIAGONAL=FIRST_DIAGONAL
		MEAS_PRESET=TIME_PRESET
		MEAS_TIME=10.000
		MEAS_UNIT=GY
		PRESSURE=1013.25
		TEMPERATURE=20.00
		NORM_TEMPERATURE=20.00
		CORRECTION_FACTOR=1.0000
		CORRECTIONS=AIR_DENSITY_CORR;
		BEGIN_DATA
			-172.40		2.8182E-03
			-169.40		2.8978E-03
			-166.40		3.9488E-03
			-163.40		3.6225E-03
			-160.40		3.9281E-03
			-157.40		3.9083E-03
			-154.40		3.8289E-03
			-151.40		3.7060E-03
			-148.40		4.9004E-03
			-145.40		5.0571E-03
			-142.40		5.3941E-03
			-139.40		5.8875E-03
			-136.40		5.9916E-03
			-133.40		6.5279E-03
			-130.40		7.2525E-03
			-127.40		7.3081E-03
			-124.40		7.9521E-03
			-121.40		8.4755E-03
			-118.40		9.1879E-03
			-115.40		10.075E-03
			-112.40		10.505E-03
			-109.40		11.680E-03
			-106.40		13.100E-03
			-103.40		13.076E-03
			-100.40		14.162E-03
			-97.40		16.774E-03
			-94.40		18.464E-03
			-91.40		19.950E-03
			-88.40		22.749E-03
			-85.40		24.813E-03
			-82.40		27.934E-03
			-79.40		32.451E-03
			-76.40		37.946E-03
			-73.40		50.637E-03
			-70.40		85.802E-03
			-67.40		208.70E-03
			-64.40		394.76E-03
			-61.40		534.13E-03
			-58.40		598.11E-03
			-55.40		623.70E-03
			-52.40		636.52E-03
			-49.40		644.22E-03
			-46.40		647.68E-03
			-43.40		651.41E-03
			-40.40		654.62E-03
			-37.40		659.27E-03
			-34.40		659.89E-03
			-31.40		661.92E-03
			-28.40		660.71E-03
			-25.40		664.31E-03
			-22.40		664.05E-03
			-19.40		663.91E-03
			-16.40		667.86E-03
			-13.40		671.02E-03
			0.00		667.93E-03
			13.40		673.49E-03
			16.40		669.10E-03
			19.40		668.23E-03
			22.40		666.67E-03
			25.40		666.18E-03
			28.40		664.97E-03
			31.40		662.63E-03
			34.40		660.07E-03
			37.40		662.42E-03
			40.40		660.34E-03
			43.40		657.59E-03
			46.40		655.86E-03
			49.40		650.61E-03
			52.40		646.21E-03
			55.40		636.23E-03
			58.40		624.78E-03
			61.40		599.65E-03
			64.40		528.18E-03
			67.40		395.76E-03
			70.40		236.20E-03
			73.40		110.39E-03
			76.40		59.647E-03
			79.40		43.107E-03
			82.40		35.022E-03
			85.40		29.881E-03
			88.40		26.894E-03
			91.40		23.566E-03
			94.40		21.226E-03
			97.40		19.313E-03
			100.40		17.301E-03
			103.40		16.208E-03
			106.40		14.870E-03
			109.40		13.364E-03
			112.40		11.819E-03
			115.40		10.979E-03
			118.40		9.6145E-03
			121.40		9.2801E-03
			124.40		9.2728E-03
			127.40		8.2391E-03
			130.40		7.8934E-03
			133.40		6.8743E-03
			136.40		5.8885E-03
			139.40		6.0290E-03
			142.40		5.8958E-03
			145.40		5.4890E-03
			148.40		5.5159E-03
			151.40		4.6137E-03
			154.40		4.6309E-03
			157.40		4.3968E-03
			160.40		3.3404E-03
			163.40		3.1812E-03
			166.40		4.0383E-03
			169.40		3.1998E-03
			172.40		3.5981E-03
		END_DATA
	END_SCAN  15
	BEGIN_SCAN  16
		TASK_NAME=MODE_INTERVAL
		PROGRAM=BeamAdjust 1.2
		MEAS_DATE=07-Oct-2010 13:47:29
		LINAC=A4
		MODALITY=X
		INPLANE_AXIS_DIR=GUN_TARGET
		CROSSPLANE_AXIS_DIR=LEFT_RIGHT
		DEPTH_AXIS_DIR=UP_DOWN
		ENERGY=6.00
		SSD=950.00
		WEDGE=None
		FIELD_INPLANE=100.00
		FIELD_CROSSPLANE=100.00
		FIELD_TYPE=RECTANGULAR
		GANTRY=0.00
		GANTRY_UPRIGHT_POSITION=0
		GANTRY_ROTATION=CW
		COLL_ANGLE=90.00
		COLL_OFFSET_INPLANE=0.00
		COLL_OFFSET_CROSSPLANE=0.00
		SCAN_DEVICE=STARCHECK
		ELECTROMETER=2D_ARRAY_INTERFACE
		DETECTOR=STARCHECK
		SCAN_CURVETYPE=INPLANE_PROFILE
		SCAN_DEPTH=0.00
		SCAN_OFFAXIS_CROSSPLANE=0.00
		SCAN_ANGLE=0.00
		SCAN_DIAGONAL=SECOND_DIAGONAL
		MEAS_PRESET=TIME_PRESET
		MEAS_TIME=10.000
		MEAS_UNIT=GY
		PRESSURE=1013.25
		TEMPERATURE=20.00
		NORM_TEMPERATURE=20.00
		CORRECTION_FACTOR=1.0000
		CORRECTIONS=AIR_DENSITY_CORR;
		BEGIN_DATA
			-172.40		3.0094E-03
			-169.40		3.4005E-03
			-166.40		3.5208E-03
			-163.40		3.2273E-03
			-160.40		3.8646E-03
			-157.40		4.6921E-03
			-154.40		4.5238E-03
			-151.40		4.6327E-03
			-148.40		5.2833E-03
			-145.40		5.1933E-03
			-142.40		5.4867E-03
			-139.40		6.3257E-03
			-136.40		6.0267E-03
			-133.40		7.0315E-03
			-130.40		8.0190E-03
			-127.40		8.3727E-03
			-124.40		9.1714E-03
			-121.40		10.050E-03
			-118.40		10.618E-03
			-115.40		11.519E-03
			-112.40		11.997E-03
			-109.40		13.439E-03
			-106.40		14.380E-03
			-103.40		16.366E-03
			-100.40		17.936E-03
			-97.40		19.505E-03
			-94.40		21.524E-03
			-91.40		23.861E-03
			-88.40		26.413E-03
			-85.40		30.783E-03
			-82.40		36.449E-03
			-79.40		47.095E-03
			-76.40		72.062E-03
			-73.40		161.82E-03
			-70.40		349.15E-03
			-67.40		509.54E-03
			-64.40		591.70E-03
			-61.40		623.22E-03
			-58.40		639.92E-03
			-55.40		646.27E-03
			-52.40		654.91E-03
			-49.40		658.60E-03
			-46.40		660.44E-03
			-43.40		663.13E-03
			-40.40		665.10E-03
			-37.40		668.15E-03
			-34.40		667.11E-03
			-31.40		668.23E-03
			-28.40		669.99E-03
			-25.40		668.79E-03
			-22.40		667.24E-03
			-19.40		671.41E-03
			-16.40		673.05E-03
			-13.40		674.63E-03
			0.00		667.93E-03
			13.40		670.69E-03
			16.40		667.59E-03
			19.40		664.70E-03
			22.40		662.43E-03
			25.40		662.11E-03
			28.40		660.43E-03
			31.40		658.76E-03
			34.40		655.44E-03
			37.40		654.90E-03
			40.40		653.08E-03
			43.40		650.21E-03
			46.40		647.37E-03
			49.40		641.26E-03
			52.40		629.55E-03
			55.40		614.76E-03
			58.40		585.87E-03
			61.40		501.29E-03
			64.40		327.94E-03
			67.40		142.47E-03
			70.40		66.787E-03
			73.40		45.339E-03
			76.40		35.897E-03
			79.40		29.895E-03
			82.40		27.139E-03
			85.40		24.359E-03
			88.40		21.714E-03
			91.40		20.163E-03
			94.40		17.909E-03
			97.40		16.207E-03
			100.40		14.076E-03
			103.40		13.140E-03
			106.40		12.270E-03
			109.40		11.183E-03
			112.40		10.467E-03
			115.40		9.9576E-03
			118.40		8.9017E-03
			121.40		8.5290E-03
			124.40		7.5501E-03
			127.40		7.0304E-03
			130.40		6.9934E-03
			133.40		6.1820E-03
			136.40		5.5884E-03
			139.40		5.9521E-03
			142.40		5.4487E-03
			145.40		5.1927E-03
			148.40		4.6607E-03
			151.40		4.3099E-03
			154.40		4.2812E-03
			157.40		4.8223E-03
			160.40		3.7859E-03
			163.40		3.9530E-03
			166.40		3.6942E-03
			169.40		3.0226E-03
			172.40		2.6060E-03
		END_DATA
	END_SCAN  16
END_SCAN_DATA
