BEGIN_SCAN_DATA
	FORMAT=CC-Export V1.9                  
	FILE_CREATION_DATE=07-Oct-2010 13:46:52
	LAST_MODIFIED=07-Oct-2010 13:46:52
	BEGIN_SCAN  1
		TASK_NAME=MODE_INTERVAL
		PROGRAM=BeamAdjust 1.2
		MEAS_DATE=07-Oct-2010 13:46:52
		LINAC=A4
		MODALITY=X
		INPLANE_AXIS_DIR=TARGET_GUN
		CROSSPLANE_AXIS_DIR=LEFT_RIGHT
		DEPTH_AXIS_DIR=UP_DOWN
		ENERGY=6.00
		SSD=950.00
		WEDGE=None
		FIELD_INPLANE=100.00
		FIELD_CROSSPLANE=100.00
		FIELD_TYPE=RECTANGULAR
		GANTRY=0.00
		GANTRY_UPRIGHT_POSITION=0
		GANTRY_ROTATION=CW
		COLL_ANGLE=90.00
		COLL_OFFSET_INPLANE=0.00
		COLL_OFFSET_CROSSPLANE=0.00
		SCAN_DEVICE=STARCHECK
		ELECTROMETER=2D_ARRAY_INTERFACE
		DETECTOR=STARCHECK
		SCAN_CURVETYPE=CROSSPLANE_PROFILE
		SCAN_DEPTH=0.00
		SCAN_OFFAXIS_INPLANE=-130.00
		SCAN_ANGLE=0.00
		SCAN_DIAGONAL=NOT_DIAGONAL
		MEAS_PRESET=TIME_PRESET
		MEAS_TIME=10.000
		MEAS_UNIT=GY
		PRESSURE=1013.25
		TEMPERATURE=20.00
		NORM_TEMPERATURE=20.00
		CORRECTION_FACTOR=1.0000
		CORRECTIONS=AIR_DENSITY_CORR;
		BEGIN_DATA
			-130.00		2.6099E-03
			-80.00		4.4570E-03
			-40.00		7.0420E-03
			40.00		7.1491E-03
			80.00		4.3558E-03
			130.00		2.2561E-03
		END_DATA
	END_SCAN  1
	BEGIN_SCAN  2
		TASK_NAME=MODE_INTERVAL
		PROGRAM=BeamAdjust 1.2
		MEAS_DATE=07-Oct-2010 13:46:52
		LINAC=A4
		MODALITY=X
		INPLANE_AXIS_DIR=TARGET_GUN
		CROSSPLANE_AXIS_DIR=LEFT_RIGHT
		DEPTH_AXIS_DIR=UP_DOWN
		ENERGY=6.00
		SSD=950.00
		WEDGE=None
		FIELD_INPLANE=100.00
		FIELD_CROSSPLANE=100.00
		FIELD_TYPE=RECTANGULAR
		GANTRY=0.00
		GANTRY_UPRIGHT_POSITION=0
		GANTRY_ROTATION=CW
		COLL_ANGLE=90.00
		COLL_OFFSET_INPLANE=0.00
		COLL_OFFSET_CROSSPLANE=0.00
		SCAN_DEVICE=STARCHECK
		ELECTROMETER=2D_ARRAY_INTERFACE
		DETECTOR=STARCHECK
		SCAN_CURVETYPE=CROSSPLANE_PROFILE
		SCAN_DEPTH=0.00
		SCAN_OFFAXIS_INPLANE=-100.00
		SCAN_ANGLE=0.00
		SCAN_DIAGONAL=NOT_DIAGONAL
		MEAS_PRESET=TIME_PRESET
		MEAS_TIME=10.000
		MEAS_UNIT=GY
		PRESSURE=1013.25
		TEMPERATURE=20.00
		NORM_TEMPERATURE=20.00
		CORRECTION_FACTOR=1.0000
		CORRECTIONS=AIR_DENSITY_CORR;
		BEGIN_DATA
			-60.00		10.092E-03
			-30.00		13.989E-03
			30.00		15.166E-03
			60.00		11.062E-03
		END_DATA
	END_SCAN  2
	BEGIN_SCAN  3
		TASK_NAME=MODE_INTERVAL
		PROGRAM=BeamAdjust 1.2
		MEAS_DATE=07-Oct-2010 13:46:52
		LINAC=A4
		MODALITY=X
		INPLANE_AXIS_DIR=TARGET_GUN
		CROSSPLANE_AXIS_DIR=LEFT_RIGHT
		DEPTH_AXIS_DIR=UP_DOWN
		ENERGY=6.00
		SSD=950.00
		WEDGE=None
		FIELD_INPLANE=100.00
		FIELD_CROSSPLANE=100.00
		FIELD_TYPE=RECTANGULAR
		GANTRY=0.00
		GANTRY_UPRIGHT_POSITION=0
		GANTRY_ROTATION=CW
		COLL_ANGLE=90.00
		COLL_OFFSET_INPLANE=0.00
		COLL_OFFSET_CROSSPLANE=0.00
		SCAN_DEVICE=STARCHECK
		ELECTROMETER=2D_ARRAY_INTERFACE
		DETECTOR=STARCHECK
		SCAN_CURVETYPE=CROSSPLANE_PROFILE
		SCAN_DEPTH=0.00
		SCAN_OFFAXIS_INPLANE=-50.00
		SCAN_ANGLE=0.00
		SCAN_DIAGONAL=NOT_DIAGONAL
		MEAS_PRESET=TIME_PRESET
		MEAS_TIME=10.000
		MEAS_UNIT=GY
		PRESSURE=1013.25
		TEMPERATURE=20.00
		NORM_TEMPERATURE=20.00
		CORRECTION_FACTOR=1.0000
		CORRECTIONS=AIR_DENSITY_CORR;
		BEGIN_DATA
			-30.00		386.00E-03
			-15.00		370.13E-03
			15.00		389.31E-03
			30.00		391.23E-03
		END_DATA
	END_SCAN  3
	BEGIN_SCAN  4
		TASK_NAME=MODE_INTERVAL
		PROGRAM=BeamAdjust 1.2
		MEAS_DATE=07-Oct-2010 13:46:52
		LINAC=A4
		MODALITY=X
		INPLANE_AXIS_DIR=TARGET_GUN
		CROSSPLANE_AXIS_DIR=LEFT_RIGHT
		DEPTH_AXIS_DIR=UP_DOWN
		ENERGY=6.00
		SSD=950.00
		WEDGE=None
		FIELD_INPLANE=100.00
		FIELD_CROSSPLANE=100.00
		FIELD_TYPE=RECTANGULAR
		GANTRY=0.00
		GANTRY_UPRIGHT_POSITION=0
		GANTRY_ROTATION=CW
		COLL_ANGLE=90.00
		COLL_OFFSET_INPLANE=0.00
		COLL_OFFSET_CROSSPLANE=0.00
		SCAN_DEVICE=STARCHECK
		ELECTROMETER=2D_ARRAY_INTERFACE
		DETECTOR=STARCHECK
		SCAN_CURVETYPE=CROSSPLANE_PROFILE
		SCAN_DEPTH=0.00
		SCAN_OFFAXIS_INPLANE=0.00
		SCAN_ANGLE=0.00
		SCAN_DIAGONAL=NOT_DIAGONAL
		MEAS_PRESET=TIME_PRESET
		MEAS_TIME=10.000
		MEAS_UNIT=GY
		PRESSURE=1013.25
		TEMPERATURE=20.00
		NORM_TEMPERATURE=20.00
		CORRECTION_FACTOR=1.0000
		CORRECTIONS=AIR_DENSITY_CORR;
		BEGIN_DATA
			-126.00		6.3096E-03
			-123.00		7.1367E-03
			-120.00		7.5909E-03
			-117.00		8.3332E-03
			-114.00		8.4948E-03
			-111.00		9.4046E-03
			-108.00		9.7827E-03
			-105.00		10.043E-03
			-102.00		10.947E-03
			-99.00		12.119E-03
			-96.00		12.794E-03
			-93.00		14.297E-03
			-90.00		14.968E-03
			-87.00		16.229E-03
			-84.00		18.160E-03
			-81.00		19.603E-03
			-78.00		21.369E-03
			-75.00		23.662E-03
			-72.00		25.866E-03
			-69.00		29.756E-03
			-66.00		32.799E-03
			-63.00		36.858E-03
			-60.00		42.467E-03
			-57.00		50.904E-03
			-54.00		63.571E-03
			-51.00		92.227E-03
			-48.00		181.15E-03
			-45.00		467.12E-03
			-42.00		599.03E-03
			-39.00		633.30E-03
			-36.00		646.79E-03
			-33.00		650.12E-03
			-30.00		653.52E-03
			-27.00		657.61E-03
			-24.00		659.87E-03
			-21.00		660.29E-03
			-18.00		665.68E-03
			-15.00		665.75E-03
			-12.00		666.10E-03
			-9.00		670.11E-03
			-6.00		670.01E-03
			0.00		667.52E-03
			6.00		670.16E-03
			9.00		669.84E-03
			12.00		668.27E-03
			15.00		668.99E-03
			18.00		668.66E-03
			21.00		665.83E-03
			24.00		663.05E-03
			27.00		666.30E-03
			30.00		665.59E-03
			33.00		664.76E-03
			36.00		662.61E-03
			39.00		659.83E-03
			42.00		654.18E-03
			45.00		646.20E-03
			48.00		628.26E-03
			51.00		580.38E-03
			54.00		363.21E-03
			57.00		131.61E-03
			60.00		78.804E-03
			63.00		58.655E-03
			66.00		47.646E-03
			69.00		40.346E-03
			72.00		35.392E-03
			75.00		31.311E-03
			78.00		28.293E-03
			81.00		25.080E-03
			84.00		22.620E-03
			87.00		20.180E-03
			90.00		19.176E-03
			93.00		16.828E-03
			96.00		15.253E-03
			99.00		14.334E-03
			102.00		13.160E-03
			105.00		12.423E-03
			108.00		11.957E-03
			111.00		10.130E-03
			114.00		9.7563E-03
			117.00		9.1391E-03
			120.00		8.1794E-03
			123.00		8.0856E-03
			126.00		7.9188E-03
		END_DATA
	END_SCAN  4
	BEGIN_SCAN  5
		TASK_NAME=MODE_INTERVAL
		PROGRAM=BeamAdjust 1.2
		MEAS_DATE=07-Oct-2010 13:46:52
		LINAC=A4
		MODALITY=X
		INPLANE_AXIS_DIR=TARGET_GUN
		CROSSPLANE_AXIS_DIR=LEFT_RIGHT
		DEPTH_AXIS_DIR=UP_DOWN
		ENERGY=6.00
		SSD=950.00
		WEDGE=None
		FIELD_INPLANE=100.00
		FIELD_CROSSPLANE=100.00
		FIELD_TYPE=RECTANGULAR
		GANTRY=0.00
		GANTRY_UPRIGHT_POSITION=0
		GANTRY_ROTATION=CW
		COLL_ANGLE=90.00
		COLL_OFFSET_INPLANE=0.00
		COLL_OFFSET_CROSSPLANE=0.00
		SCAN_DEVICE=STARCHECK
		ELECTROMETER=2D_ARRAY_INTERFACE
		DETECTOR=STARCHECK
		SCAN_CURVETYPE=CROSSPLANE_PROFILE
		SCAN_DEPTH=0.00
		SCAN_OFFAXIS_INPLANE=50.00
		SCAN_ANGLE=0.00
		SCAN_DIAGONAL=NOT_DIAGONAL
		MEAS_PRESET=TIME_PRESET
		MEAS_TIME=10.000
		MEAS_UNIT=GY
		PRESSURE=1013.25
		TEMPERATURE=20.00
		NORM_TEMPERATURE=20.00
		CORRECTION_FACTOR=1.0000
		CORRECTIONS=AIR_DENSITY_CORR;
		BEGIN_DATA
			-30.00		263.91E-03
			-15.00		287.06E-03
			15.00		267.01E-03
			30.00		258.78E-03
		END_DATA
	END_SCAN  5
	BEGIN_SCAN  6
		TASK_NAME=MODE_INTERVAL
		PROGRAM=BeamAdjust 1.2
		MEAS_DATE=07-Oct-2010 13:46:52
		LINAC=A4
		MODALITY=X
		INPLANE_AXIS_DIR=TARGET_GUN
		CROSSPLANE_AXIS_DIR=LEFT_RIGHT
		DEPTH_AXIS_DIR=UP_DOWN
		ENERGY=6.00
		SSD=950.00
		WEDGE=None
		FIELD_INPLANE=100.00
		FIELD_CROSSPLANE=100.00
		FIELD_TYPE=RECTANGULAR
		GANTRY=0.00
		GANTRY_UPRIGHT_POSITION=0
		GANTRY_ROTATION=CW
		COLL_ANGLE=90.00
		COLL_OFFSET_INPLANE=0.00
		COLL_OFFSET_CROSSPLANE=0.00
		SCAN_DEVICE=STARCHECK
		ELECTROMETER=2D_ARRAY_INTERFACE
		DETECTOR=STARCHECK
		SCAN_CURVETYPE=CROSSPLANE_PROFILE
		SCAN_DEPTH=0.00
		SCAN_OFFAXIS_INPLANE=100.00
		SCAN_ANGLE=0.00
		SCAN_DIAGONAL=NOT_DIAGONAL
		MEAS_PRESET=TIME_PRESET
		MEAS_TIME=10.000
		MEAS_UNIT=GY
		PRESSURE=1013.25
		TEMPERATURE=20.00
		NORM_TEMPERATURE=20.00
		CORRECTION_FACTOR=1.0000
		CORRECTIONS=AIR_DENSITY_CORR;
		BEGIN_DATA
			-60.00		9.7795E-03
			-30.00		14.681E-03
			30.00		14.836E-03
			60.00		9.9728E-03
		END_DATA
	END_SCAN  6
	BEGIN_SCAN  7
		TASK_NAME=MODE_INTERVAL
		PROGRAM=BeamAdjust 1.2
		MEAS_DATE=07-Oct-2010 13:46:52
		LINAC=A4
		MODALITY=X
		INPLANE_AXIS_DIR=TARGET_GUN
		CROSSPLANE_AXIS_DIR=LEFT_RIGHT
		DEPTH_AXIS_DIR=UP_DOWN
		ENERGY=6.00
		SSD=950.00
		WEDGE=None
		FIELD_INPLANE=100.00
		FIELD_CROSSPLANE=100.00
		FIELD_TYPE=RECTANGULAR
		GANTRY=0.00
		GANTRY_UPRIGHT_POSITION=0
		GANTRY_ROTATION=CW
		COLL_ANGLE=90.00
		COLL_OFFSET_INPLANE=0.00
		COLL_OFFSET_CROSSPLANE=0.00
		SCAN_DEVICE=STARCHECK
		ELECTROMETER=2D_ARRAY_INTERFACE
		DETECTOR=STARCHECK
		SCAN_CURVETYPE=CROSSPLANE_PROFILE
		SCAN_DEPTH=0.00
		SCAN_OFFAXIS_INPLANE=130.00
		SCAN_ANGLE=0.00
		SCAN_DIAGONAL=NOT_DIAGONAL
		MEAS_PRESET=TIME_PRESET
		MEAS_TIME=10.000
		MEAS_UNIT=GY
		PRESSURE=1013.25
		TEMPERATURE=20.00
		NORM_TEMPERATURE=20.00
		CORRECTION_FACTOR=1.0000
		CORRECTIONS=AIR_DENSITY_CORR;
		BEGIN_DATA
			-130.00		2.2492E-03
			-80.00		4.0303E-03
			-40.00		7.3271E-03
			40.00		7.3317E-03
			80.00		4.6844E-03
			130.00		2.3018E-03
		END_DATA
	END_SCAN  7
	BEGIN_SCAN  8
		TASK_NAME=MODE_INTERVAL
		PROGRAM=BeamAdjust 1.2
		MEAS_DATE=07-Oct-2010 13:46:52
		LINAC=A4
		MODALITY=X
		INPLANE_AXIS_DIR=TARGET_GUN
		CROSSPLANE_AXIS_DIR=LEFT_RIGHT
		DEPTH_AXIS_DIR=UP_DOWN
		ENERGY=6.00
		SSD=950.00
		WEDGE=None
		FIELD_INPLANE=100.00
		FIELD_CROSSPLANE=100.00
		FIELD_TYPE=RECTANGULAR
		GANTRY=0.00
		GANTRY_UPRIGHT_POSITION=0
		GANTRY_ROTATION=CW
		COLL_ANGLE=90.00
		COLL_OFFSET_INPLANE=0.00
		COLL_OFFSET_CROSSPLANE=0.00
		SCAN_DEVICE=STARCHECK
		ELECTROMETER=2D_ARRAY_INTERFACE
		DETECTOR=STARCHECK
		SCAN_CURVETYPE=INPLANE_PROFILE
		SCAN_DEPTH=0.00
		SCAN_OFFAXIS_CROSSPLANE=-130.00
		SCAN_ANGLE=0.00
		SCAN_DIAGONAL=NOT_DIAGONAL
		MEAS_PRESET=TIME_PRESET
		MEAS_TIME=10.000
		MEAS_UNIT=GY
		PRESSURE=1013.25
		TEMPERATURE=20.00
		NORM_TEMPERATURE=20.00
		CORRECTION_FACTOR=1.0000
		CORRECTIONS=AIR_DENSITY_CORR;
		BEGIN_DATA
			-130.00		2.6099E-03
			-125.00		2.7479E-03
			-120.00		3.0489E-03
			-115.00		3.2519E-03
			-110.00		3.3900E-03
			-105.00		3.6009E-03
			-100.00		3.8844E-03
			-95.00		4.3663E-03
			-90.00		4.2751E-03
			-85.00		4.3041E-03
			-80.00		3.9092E-03
			-75.00		4.8068E-03
			-70.00		4.6302E-03
			-65.00		4.9221E-03
			-60.00		5.6137E-03
			-55.00		5.4008E-03
			-50.00		4.1945E-03
			-45.00		4.5720E-03
			-40.00		4.7055E-03
			-35.00		5.6067E-03
			-30.00		5.2432E-03
			-25.00		5.1698E-03
			-20.00		4.9092E-03
			-15.00		4.5993E-03
			-10.00		5.4248E-03
			-5.00		5.8129E-03
			0.00		5.9392E-03
			5.00		6.3702E-03
			10.00		6.3604E-03
			15.00		5.3683E-03
			20.00		5.5560E-03
			25.00		5.0940E-03
			30.00		5.4333E-03
			35.00		5.8474E-03
			40.00		5.0700E-03
			45.00		4.5197E-03
			50.00		4.7483E-03
			55.00		4.3799E-03
			60.00		4.2659E-03
			65.00		3.7692E-03
			70.00		4.0607E-03
			75.00		3.9123E-03
			80.00		4.3069E-03
			85.00		3.6574E-03
			90.00		3.0539E-03
			95.00		3.3745E-03
			100.00		3.4358E-03
			105.00		3.0063E-03
			110.00		2.9660E-03
			115.00		2.6485E-03
			120.00		2.8144E-03
			125.00		2.6005E-03
			130.00		2.2492E-03
		END_DATA
	END_SCAN  8
	BEGIN_SCAN  9
		TASK_NAME=MODE_INTERVAL
		PROGRAM=BeamAdjust 1.2
		MEAS_DATE=07-Oct-2010 13:46:52
		LINAC=A4
		MODALITY=X
		INPLANE_AXIS_DIR=TARGET_GUN
		CROSSPLANE_AXIS_DIR=LEFT_RIGHT
		DEPTH_AXIS_DIR=UP_DOWN
		ENERGY=6.00
		SSD=950.00
		WEDGE=None
		FIELD_INPLANE=100.00
		FIELD_CROSSPLANE=100.00
		FIELD_TYPE=RECTANGULAR
		GANTRY=0.00
		GANTRY_UPRIGHT_POSITION=0
		GANTRY_ROTATION=CW
		COLL_ANGLE=90.00
		COLL_OFFSET_INPLANE=0.00
		COLL_OFFSET_CROSSPLANE=0.00
		SCAN_DEVICE=STARCHECK
		ELECTROMETER=2D_ARRAY_INTERFACE
		DETECTOR=STARCHECK
		SCAN_CURVETYPE=INPLANE_PROFILE
		SCAN_DEPTH=0.00
		SCAN_OFFAXIS_CROSSPLANE=-100.00
		SCAN_ANGLE=0.00
		SCAN_DIAGONAL=NOT_DIAGONAL
		MEAS_PRESET=TIME_PRESET
		MEAS_TIME=10.000
		MEAS_UNIT=GY
		PRESSURE=1013.25
		TEMPERATURE=20.00
		NORM_TEMPERATURE=20.00
		CORRECTION_FACTOR=1.0000
		CORRECTIONS=AIR_DENSITY_CORR;
		BEGIN_DATA
			-60.00		7.9138E-03
			-30.00		9.8000E-03
			30.00		9.5494E-03
			60.00		7.8962E-03
		END_DATA
	END_SCAN  9
	BEGIN_SCAN  10
		TASK_NAME=MODE_INTERVAL
		PROGRAM=BeamAdjust 1.2
		MEAS_DATE=07-Oct-2010 13:46:52
		LINAC=A4
		MODALITY=X
		INPLANE_AXIS_DIR=TARGET_GUN
		CROSSPLANE_AXIS_DIR=LEFT_RIGHT
		DEPTH_AXIS_DIR=UP_DOWN
		ENERGY=6.00
		SSD=950.00
		WEDGE=None
		FIELD_INPLANE=100.00
		FIELD_CROSSPLANE=100.00
		FIELD_TYPE=RECTANGULAR
		GANTRY=0.00
		GANTRY_UPRIGHT_POSITION=0
		GANTRY_ROTATION=CW
		COLL_ANGLE=90.00
		COLL_OFFSET_INPLANE=0.00
		COLL_OFFSET_CROSSPLANE=0.00
		SCAN_DEVICE=STARCHECK
		ELECTROMETER=2D_ARRAY_INTERFACE
		DETECTOR=STARCHECK
		SCAN_CURVETYPE=INPLANE_PROFILE
		SCAN_DEPTH=0.00
		SCAN_OFFAXIS_CROSSPLANE=-50.00
		SCAN_ANGLE=0.00
		SCAN_DIAGONAL=NOT_DIAGONAL
		MEAS_PRESET=TIME_PRESET
		MEAS_TIME=10.000
		MEAS_UNIT=GY
		PRESSURE=1013.25
		TEMPERATURE=20.00
		NORM_TEMPERATURE=20.00
		CORRECTION_FACTOR=1.0000
		CORRECTIONS=AIR_DENSITY_CORR;
		BEGIN_DATA
			-30.00		100.47E-03
			-15.00		102.12E-03
			15.00		98.791E-03
			30.00		92.248E-03
		END_DATA
	END_SCAN  10
	BEGIN_SCAN  11
		TASK_NAME=MODE_INTERVAL
		PROGRAM=BeamAdjust 1.2
		MEAS_DATE=07-Oct-2010 13:46:52
		LINAC=A4
		MODALITY=X
		INPLANE_AXIS_DIR=TARGET_GUN
		CROSSPLANE_AXIS_DIR=LEFT_RIGHT
		DEPTH_AXIS_DIR=UP_DOWN
		ENERGY=6.00
		SSD=950.00
		WEDGE=None
		FIELD_INPLANE=100.00
		FIELD_CROSSPLANE=100.00
		FIELD_TYPE=RECTANGULAR
		GANTRY=0.00
		GANTRY_UPRIGHT_POSITION=0
		GANTRY_ROTATION=CW
		COLL_ANGLE=90.00
		COLL_OFFSET_INPLANE=0.00
		COLL_OFFSET_CROSSPLANE=0.00
		SCAN_DEVICE=STARCHECK
		ELECTROMETER=2D_ARRAY_INTERFACE
		DETECTOR=STARCHECK
		SCAN_CURVETYPE=INPLANE_PROFILE
		SCAN_DEPTH=0.00
		SCAN_OFFAXIS_CROSSPLANE=0.00
		SCAN_ANGLE=0.00
		SCAN_DIAGONAL=NOT_DIAGONAL
		MEAS_PRESET=TIME_PRESET
		MEAS_TIME=10.000
		MEAS_UNIT=GY
		PRESSURE=1013.25
		TEMPERATURE=20.00
		NORM_TEMPERATURE=20.00
		CORRECTION_FACTOR=1.0000
		CORRECTIONS=AIR_DENSITY_CORR;
		BEGIN_DATA
			-126.00		9.1925E-03
			-123.00		9.2175E-03
			-120.00		10.470E-03
			-117.00		11.410E-03
			-114.00		12.049E-03
			-111.00		12.600E-03
			-108.00		14.362E-03
			-105.00		14.815E-03
			-102.00		16.295E-03
			-99.00		17.071E-03
			-96.00		18.185E-03
			-93.00		20.465E-03
			-90.00		21.832E-03
			-87.00		23.522E-03
			-84.00		26.130E-03
			-81.00		28.250E-03
			-78.00		30.917E-03
			-75.00		33.210E-03
			-72.00		36.553E-03
			-69.00		40.835E-03
			-66.00		46.315E-03
			-63.00		52.914E-03
			-60.00		63.037E-03
			-57.00		82.820E-03
			-54.00		134.44E-03
			-51.00		308.60E-03
			-48.00		557.12E-03
			-45.00		622.83E-03
			-42.00		642.69E-03
			-39.00		652.20E-03
			-36.00		657.26E-03
			-33.00		660.61E-03
			-30.00		664.77E-03
			-27.00		665.67E-03
			-24.00		665.11E-03
			-21.00		664.00E-03
			-18.00		670.88E-03
			-15.00		669.47E-03
			-12.00		670.99E-03
			-9.00		671.12E-03
			-6.00		668.31E-03
			0.00		667.52E-03
			6.00		672.30E-03
			9.00		671.67E-03
			12.00		670.78E-03
			15.00		668.56E-03
			18.00		664.25E-03
			21.00		663.79E-03
			24.00		661.37E-03
			27.00		662.46E-03
			30.00		658.25E-03
			33.00		656.20E-03
			36.00		653.83E-03
			39.00		642.69E-03
			42.00		630.66E-03
			45.00		597.29E-03
			48.00		432.47E-03
			51.00		189.13E-03
			54.00		99.258E-03
			57.00		70.116E-03
			60.00		56.983E-03
			63.00		48.985E-03
			66.00		44.220E-03
			69.00		38.912E-03
			72.00		35.445E-03
			75.00		31.976E-03
			78.00		28.394E-03
			81.00		26.633E-03
			84.00		24.577E-03
			87.00		22.700E-03
			90.00		21.418E-03
			93.00		19.741E-03
			96.00		18.341E-03
			99.00		16.727E-03
			102.00		15.307E-03
			105.00		14.063E-03
			108.00		14.041E-03
			111.00		12.700E-03
			114.00		11.787E-03
			117.00		11.180E-03
			120.00		10.578E-03
			123.00		9.9280E-03
			126.00		9.0412E-03
		END_DATA
	END_SCAN  11
	BEGIN_SCAN  12
		TASK_NAME=MODE_INTERVAL
		PROGRAM=BeamAdjust 1.2
		MEAS_DATE=07-Oct-2010 13:46:52
		LINAC=A4
		MODALITY=X
		INPLANE_AXIS_DIR=TARGET_GUN
		CROSSPLANE_AXIS_DIR=LEFT_RIGHT
		DEPTH_AXIS_DIR=UP_DOWN
		ENERGY=6.00
		SSD=950.00
		WEDGE=None
		FIELD_INPLANE=100.00
		FIELD_CROSSPLANE=100.00
		FIELD_TYPE=RECTANGULAR
		GANTRY=0.00
		GANTRY_UPRIGHT_POSITION=0
		GANTRY_ROTATION=CW
		COLL_ANGLE=90.00
		COLL_OFFSET_INPLANE=0.00
		COLL_OFFSET_CROSSPLANE=0.00
		SCAN_DEVICE=STARCHECK
		ELECTROMETER=2D_ARRAY_INTERFACE
		DETECTOR=STARCHECK
		SCAN_CURVETYPE=INPLANE_PROFILE
		SCAN_DEPTH=0.00
		SCAN_OFFAXIS_CROSSPLANE=50.00
		SCAN_ANGLE=0.00
		SCAN_DIAGONAL=NOT_DIAGONAL
		MEAS_PRESET=TIME_PRESET
		MEAS_TIME=10.000
		MEAS_UNIT=GY
		PRESSURE=1013.25
		TEMPERATURE=20.00
		NORM_TEMPERATURE=20.00
		CORRECTION_FACTOR=1.0000
		CORRECTIONS=AIR_DENSITY_CORR;
		BEGIN_DATA
			-30.00		612.08E-03
			-15.00		617.75E-03
			15.00		616.70E-03
			30.00		614.86E-03
		END_DATA
	END_SCAN  12
	BEGIN_SCAN  13
		TASK_NAME=MODE_INTERVAL
		PROGRAM=BeamAdjust 1.2
		MEAS_DATE=07-Oct-2010 13:46:52
		LINAC=A4
		MODALITY=X
		INPLANE_AXIS_DIR=TARGET_GUN
		CROSSPLANE_AXIS_DIR=LEFT_RIGHT
		DEPTH_AXIS_DIR=UP_DOWN
		ENERGY=6.00
		SSD=950.00
		WEDGE=None
		FIELD_INPLANE=100.00
		FIELD_CROSSPLANE=100.00
		FIELD_TYPE=RECTANGULAR
		GANTRY=0.00
		GANTRY_UPRIGHT_POSITION=0
		GANTRY_ROTATION=CW
		COLL_ANGLE=90.00
		COLL_OFFSET_INPLANE=0.00
		COLL_OFFSET_CROSSPLANE=0.00
		SCAN_DEVICE=STARCHECK
		ELECTROMETER=2D_ARRAY_INTERFACE
		DETECTOR=STARCHECK
		SCAN_CURVETYPE=INPLANE_PROFILE
		SCAN_DEPTH=0.00
		SCAN_OFFAXIS_CROSSPLANE=100.00
		SCAN_ANGLE=0.00
		SCAN_DIAGONAL=NOT_DIAGONAL
		MEAS_PRESET=TIME_PRESET
		MEAS_TIME=10.000
		MEAS_UNIT=GY
		PRESSURE=1013.25
		TEMPERATURE=20.00
		NORM_TEMPERATURE=20.00
		CORRECTION_FACTOR=1.0000
		CORRECTIONS=AIR_DENSITY_CORR;
		BEGIN_DATA
			-60.00		9.2216E-03
			-30.00		12.305E-03
			30.00		11.848E-03
			60.00		8.2506E-03
		END_DATA
	END_SCAN  13
	BEGIN_SCAN  14
		TASK_NAME=MODE_INTERVAL
		PROGRAM=BeamAdjust 1.2
		MEAS_DATE=07-Oct-2010 13:46:52
		LINAC=A4
		MODALITY=X
		INPLANE_AXIS_DIR=TARGET_GUN
		CROSSPLANE_AXIS_DIR=LEFT_RIGHT
		DEPTH_AXIS_DIR=UP_DOWN
		ENERGY=6.00
		SSD=950.00
		WEDGE=None
		FIELD_INPLANE=100.00
		FIELD_CROSSPLANE=100.00
		FIELD_TYPE=RECTANGULAR
		GANTRY=0.00
		GANTRY_UPRIGHT_POSITION=0
		GANTRY_ROTATION=CW
		COLL_ANGLE=90.00
		COLL_OFFSET_INPLANE=0.00
		COLL_OFFSET_CROSSPLANE=0.00
		SCAN_DEVICE=STARCHECK
		ELECTROMETER=2D_ARRAY_INTERFACE
		DETECTOR=STARCHECK
		SCAN_CURVETYPE=INPLANE_PROFILE
		SCAN_DEPTH=0.00
		SCAN_OFFAXIS_CROSSPLANE=130.00
		SCAN_ANGLE=0.00
		SCAN_DIAGONAL=NOT_DIAGONAL
		MEAS_PRESET=TIME_PRESET
		MEAS_TIME=10.000
		MEAS_UNIT=GY
		PRESSURE=1013.25
		TEMPERATURE=20.00
		NORM_TEMPERATURE=20.00
		CORRECTION_FACTOR=1.0000
		CORRECTIONS=AIR_DENSITY_CORR;
		BEGIN_DATA
			-130.00		2.2561E-03
			-125.00		2.9232E-03
			-120.00		2.7298E-03
			-115.00		3.5185E-03
			-110.00		2.9771E-03
			-105.00		3.3939E-03
			-100.00		3.5647E-03
			-95.00		3.5127E-03
			-90.00		3.2819E-03
			-85.00		4.4078E-03
			-80.00		4.1518E-03
			-75.00		4.1937E-03
			-70.00		4.2978E-03
			-65.00		4.4292E-03
			-60.00		5.1336E-03
			-55.00		4.8595E-03
			-50.00		4.7729E-03
			-45.00		5.7805E-03
			-40.00		5.6736E-03
			-35.00		6.0228E-03
			-30.00		5.9155E-03
			-25.00		5.6572E-03
			-20.00		6.0357E-03
			-15.00		5.9806E-03
			-10.00		5.4959E-03
			-5.00		6.7467E-03
			0.00		7.0032E-03
			5.00		6.3765E-03
			10.00		6.4405E-03
			15.00		5.8602E-03
			20.00		6.0882E-03
			25.00		6.5304E-03
			30.00		5.4736E-03
			35.00		5.7142E-03
			40.00		6.1212E-03
			45.00		5.3339E-03
			50.00		4.9696E-03
			55.00		5.3088E-03
			60.00		4.8717E-03
			65.00		4.4621E-03
			70.00		4.6148E-03
			75.00		4.6722E-03
			80.00		4.1480E-03
			85.00		3.8859E-03
			90.00		3.7774E-03
			95.00		3.5033E-03
			100.00		4.0205E-03
			105.00		2.9965E-03
			110.00		3.0123E-03
			115.00		3.1012E-03
			120.00		2.9055E-03
			125.00		2.4541E-03
			130.00		2.3018E-03
		END_DATA
	END_SCAN  14
	BEGIN_SCAN  15
		TASK_NAME=MODE_INTERVAL
		PROGRAM=BeamAdjust 1.2
		MEAS_DATE=07-Oct-2010 13:46:52
		LINAC=A4
		MODALITY=X
		INPLANE_AXIS_DIR=TARGET_GUN
		CROSSPLANE_AXIS_DIR=LEFT_RIGHT
		DEPTH_AXIS_DIR=UP_DOWN
		ENERGY=6.00
		SSD=950.00
		WEDGE=None
		FIELD_INPLANE=100.00
		FIELD_CROSSPLANE=100.00
		FIELD_TYPE=RECTANGULAR
		GANTRY=0.00
		GANTRY_UPRIGHT_POSITION=0
		GANTRY_ROTATION=CW
		COLL_ANGLE=90.00
		COLL_OFFSET_INPLANE=0.00
		COLL_OFFSET_CROSSPLANE=0.00
		SCAN_DEVICE=STARCHECK
		ELECTROMETER=2D_ARRAY_INTERFACE
		DETECTOR=STARCHECK
		SCAN_CURVETYPE=INPLANE_PROFILE
		SCAN_DEPTH=0.00
		SCAN_OFFAXIS_CROSSPLANE=0.00
		SCAN_ANGLE=0.00
		SCAN_DIAGONAL=FIRST_DIAGONAL
		MEAS_PRESET=TIME_PRESET
		MEAS_TIME=10.000
		MEAS_UNIT=GY
		PRESSURE=1013.25
		TEMPERATURE=20.00
		NORM_TEMPERATURE=20.00
		CORRECTION_FACTOR=1.0000
		CORRECTIONS=AIR_DENSITY_CORR;
		BEGIN_DATA
			-172.40		2.7821E-03
			-169.40		2.9008E-03
			-166.40		3.8770E-03
			-163.40		3.4762E-03
			-160.40		3.9117E-03
			-157.40		4.1094E-03
			-154.40		4.4740E-03
			-151.40		3.9615E-03
			-148.40		4.5682E-03
			-145.40		5.1941E-03
			-142.40		5.2768E-03
			-139.40		5.8086E-03
			-136.40		6.0557E-03
			-133.40		6.5932E-03
			-130.40		6.9746E-03
			-127.40		7.2755E-03
			-124.40		7.5176E-03
			-121.40		8.2949E-03
			-118.40		9.1210E-03
			-115.40		9.9517E-03
			-112.40		10.898E-03
			-109.40		11.740E-03
			-106.40		12.672E-03
			-103.40		12.972E-03
			-100.40		14.334E-03
			-97.40		16.341E-03
			-94.40		17.981E-03
			-91.40		20.137E-03
			-88.40		22.001E-03
			-85.40		24.650E-03
			-82.40		27.816E-03
			-79.40		31.675E-03
			-76.40		37.181E-03
			-73.40		49.232E-03
			-70.40		80.886E-03
			-67.40		191.53E-03
			-64.40		373.26E-03
			-61.40		518.83E-03
			-58.40		592.39E-03
			-55.40		621.21E-03
			-52.40		634.44E-03
			-49.40		642.32E-03
			-46.40		646.62E-03
			-43.40		649.76E-03
			-40.40		653.66E-03
			-37.40		658.65E-03
			-34.40		659.02E-03
			-31.40		661.02E-03
			-28.40		660.90E-03
			-25.40		663.31E-03
			-22.40		663.34E-03
			-19.40		663.58E-03
			-16.40		667.26E-03
			-13.40		670.37E-03
			0.00		667.52E-03
			13.40		673.56E-03
			16.40		668.92E-03
			19.40		668.20E-03
			22.40		666.76E-03
			25.40		665.72E-03
			28.40		665.08E-03
			31.40		662.85E-03
			34.40		660.03E-03
			37.40		663.47E-03
			40.40		660.12E-03
			43.40		657.71E-03
			46.40		656.16E-03
			49.40		650.85E-03
			52.40		646.39E-03
			55.40		636.39E-03
			58.40		625.11E-03
			61.40		599.82E-03
			64.40		529.97E-03
			67.40		399.34E-03
			70.40		240.56E-03
			73.40		115.56E-03
			76.40		61.130E-03
			79.40		44.298E-03
			82.40		35.447E-03
			85.40		30.309E-03
			88.40		27.343E-03
			91.40		23.609E-03
			94.40		21.669E-03
			97.40		19.183E-03
			100.40		17.396E-03
			103.40		16.534E-03
			106.40		14.595E-03
			109.40		13.884E-03
			112.40		11.895E-03
			115.40		11.128E-03
			118.40		10.052E-03
			121.40		9.7658E-03
			124.40		8.7905E-03
			127.40		8.3576E-03
			130.40		8.1599E-03
			133.40		6.9617E-03
			136.40		5.8441E-03
			139.40		5.9434E-03
			142.40		5.4509E-03
			145.40		5.2230E-03
			148.40		5.2939E-03
			151.40		4.7046E-03
			154.40		4.7352E-03
			157.40		4.5201E-03
			160.40		3.5599E-03
			163.40		3.6710E-03
			166.40		3.5787E-03
			169.40		3.1402E-03
			172.40		3.5727E-03
		END_DATA
	END_SCAN  15
	BEGIN_SCAN  16
		TASK_NAME=MODE_INTERVAL
		PROGRAM=BeamAdjust 1.2
		MEAS_DATE=07-Oct-2010 13:46:52
		LINAC=A4
		MODALITY=X
		INPLANE_AXIS_DIR=GUN_TARGET
		CROSSPLANE_AXIS_DIR=LEFT_RIGHT
		DEPTH_AXIS_DIR=UP_DOWN
		ENERGY=6.00
		SSD=950.00
		WEDGE=None
		FIELD_INPLANE=100.00
		FIELD_CROSSPLANE=100.00
		FIELD_TYPE=RECTANGULAR
		GANTRY=0.00
		GANTRY_UPRIGHT_POSITION=0
		GANTRY_ROTATION=CW
		COLL_ANGLE=90.00
		COLL_OFFSET_INPLANE=0.00
		COLL_OFFSET_CROSSPLANE=0.00
		SCAN_DEVICE=STARCHECK
		ELECTROMETER=2D_ARRAY_INTERFACE
		DETECTOR=STARCHECK
		SCAN_CURVETYPE=INPLANE_PROFILE
		SCAN_DEPTH=0.00
		SCAN_OFFAXIS_CROSSPLANE=0.00
		SCAN_ANGLE=0.00
		SCAN_DIAGONAL=SECOND_DIAGONAL
		MEAS_PRESET=TIME_PRESET
		MEAS_TIME=10.000
		MEAS_UNIT=GY
		PRESSURE=1013.25
		TEMPERATURE=20.00
		NORM_TEMPERATURE=20.00
		CORRECTION_FACTOR=1.0000
		CORRECTIONS=AIR_DENSITY_CORR;
		BEGIN_DATA
			-172.40		3.4227E-03
			-169.40		3.6111E-03
			-166.40		3.1677E-03
			-163.40		3.3877E-03
			-160.40		3.5718E-03
			-157.40		4.0133E-03
			-154.40		4.9953E-03
			-151.40		4.9663E-03
			-148.40		5.0170E-03
			-145.40		5.3815E-03
			-142.40		5.8016E-03
			-139.40		5.8985E-03
			-136.40		6.1749E-03
			-133.40		7.1854E-03
			-130.40		7.5579E-03
			-127.40		8.4422E-03
			-124.40		9.4227E-03
			-121.40		9.7631E-03
			-118.40		10.468E-03
			-115.40		11.350E-03
			-112.40		12.062E-03
			-109.40		13.374E-03
			-106.40		14.876E-03
			-103.40		16.033E-03
			-100.40		18.273E-03
			-97.40		19.585E-03
			-94.40		21.661E-03
			-91.40		24.285E-03
			-88.40		26.716E-03
			-85.40		30.975E-03
			-82.40		36.762E-03
			-79.40		48.312E-03
			-76.40		74.910E-03
			-73.40		170.56E-03
			-70.40		356.31E-03
			-67.40		510.60E-03
			-64.40		591.61E-03
			-61.40		622.65E-03
			-58.40		638.97E-03
			-55.40		645.76E-03
			-52.40		654.21E-03
			-49.40		657.83E-03
			-46.40		659.71E-03
			-43.40		662.41E-03
			-40.40		664.46E-03
			-37.40		667.12E-03
			-34.40		666.62E-03
			-31.40		666.87E-03
			-28.40		669.56E-03
			-25.40		668.02E-03
			-22.40		666.48E-03
			-19.40		670.84E-03
			-16.40		672.04E-03
			-13.40		673.79E-03
			0.00		667.52E-03
			13.40		670.18E-03
			16.40		667.76E-03
			19.40		665.07E-03
			22.40		662.43E-03
			25.40		662.20E-03
			28.40		660.34E-03
			31.40		658.60E-03
			34.40		655.27E-03
			37.40		654.97E-03
			40.40		652.32E-03
			43.40		649.63E-03
			46.40		646.54E-03
			49.40		640.22E-03
			52.40		628.54E-03
			55.40		612.40E-03
			58.40		580.31E-03
			61.40		485.94E-03
			64.40		308.28E-03
			67.40		131.60E-03
			70.40		63.624E-03
			73.40		43.839E-03
			76.40		34.900E-03
			79.40		29.975E-03
			82.40		27.194E-03
			85.40		23.897E-03
			88.40		21.444E-03
			91.40		19.312E-03
			94.40		17.377E-03
			97.40		16.165E-03
			100.40		14.053E-03
			103.40		13.316E-03
			106.40		12.261E-03
			109.40		11.526E-03
			112.40		10.528E-03
			115.40		9.3341E-03
			118.40		8.7939E-03
			121.40		8.5081E-03
			124.40		7.7161E-03
			127.40		7.1949E-03
			130.40		7.1427E-03
			133.40		6.3387E-03
			136.40		5.2361E-03
			139.40		6.1107E-03
			142.40		5.0334E-03
			145.40		5.2437E-03
			148.40		4.9223E-03
			151.40		3.9516E-03
			154.40		4.5199E-03
			157.40		3.8939E-03
			160.40		3.9906E-03
			163.40		4.2744E-03
			166.40		3.3629E-03
			169.40		3.1928E-03
			172.40		2.4415E-03
		END_DATA
	END_SCAN  16
END_SCAN_DATA
