BEGIN_SCAN_DATA
	FORMAT=CC-Export V1.9                  
	FILE_CREATION_DATE=07-Oct-2010 13:46:12
	LAST_MODIFIED=07-Oct-2010 13:46:12
	BEGIN_SCAN  1
		TASK_NAME=MODE_INTERVAL
		PROGRAM=BeamAdjust 1.2
		MEAS_DATE=07-Oct-2010 13:46:12
		LINAC=A4
		MODALITY=X
		INPLANE_AXIS_DIR=TARGET_GUN
		CROSSPLANE_AXIS_DIR=LEFT_RIGHT
		DEPTH_AXIS_DIR=UP_DOWN
		ENERGY=6.00
		SSD=950.00
		WEDGE=None
		FIELD_INPLANE=100.00
		FIELD_CROSSPLANE=100.00
		FIELD_TYPE=RECTANGULAR
		GANTRY=0.00
		GANTRY_UPRIGHT_POSITION=0
		GANTRY_ROTATION=CW
		COLL_ANGLE=90.00
		COLL_OFFSET_INPLANE=0.00
		COLL_OFFSET_CROSSPLANE=0.00
		SCAN_DEVICE=STARCHECK
		ELECTROMETER=2D_ARRAY_INTERFACE
		DETECTOR=STARCHECK
		SCAN_CURVETYPE=CROSSPLANE_PROFILE
		SCAN_DEPTH=0.00
		SCAN_OFFAXIS_INPLANE=-130.00
		SCAN_ANGLE=0.00
		SCAN_DIAGONAL=NOT_DIAGONAL
		MEAS_PRESET=TIME_PRESET
		MEAS_TIME=10.000
		MEAS_UNIT=GY
		PRESSURE=1013.25
		TEMPERATURE=20.00
		NORM_TEMPERATURE=20.00
		CORRECTION_FACTOR=1.0000
		CORRECTIONS=AIR_DENSITY_CORR;
		BEGIN_DATA
			-130.00		2.2074E-03
			-80.00		4.2747E-03
			-40.00		6.7452E-03
			40.00		7.2405E-03
			80.00		4.1903E-03
			130.00		2.3937E-03
		END_DATA
	END_SCAN  1
	BEGIN_SCAN  2
		TASK_NAME=MODE_INTERVAL
		PROGRAM=BeamAdjust 1.2
		MEAS_DATE=07-Oct-2010 13:46:12
		LINAC=A4
		MODALITY=X
		INPLANE_AXIS_DIR=TARGET_GUN
		CROSSPLANE_AXIS_DIR=LEFT_RIGHT
		DEPTH_AXIS_DIR=UP_DOWN
		ENERGY=6.00
		SSD=950.00
		WEDGE=None
		FIELD_INPLANE=100.00
		FIELD_CROSSPLANE=100.00
		FIELD_TYPE=RECTANGULAR
		GANTRY=0.00
		GANTRY_UPRIGHT_POSITION=0
		GANTRY_ROTATION=CW
		COLL_ANGLE=90.00
		COLL_OFFSET_INPLANE=0.00
		COLL_OFFSET_CROSSPLANE=0.00
		SCAN_DEVICE=STARCHECK
		ELECTROMETER=2D_ARRAY_INTERFACE
		DETECTOR=STARCHECK
		SCAN_CURVETYPE=CROSSPLANE_PROFILE
		SCAN_DEPTH=0.00
		SCAN_OFFAXIS_INPLANE=-100.00
		SCAN_ANGLE=0.00
		SCAN_DIAGONAL=NOT_DIAGONAL
		MEAS_PRESET=TIME_PRESET
		MEAS_TIME=10.000
		MEAS_UNIT=GY
		PRESSURE=1013.25
		TEMPERATURE=20.00
		NORM_TEMPERATURE=20.00
		CORRECTION_FACTOR=1.0000
		CORRECTIONS=AIR_DENSITY_CORR;
		BEGIN_DATA
			-60.00		9.7175E-03
			-30.00		13.732E-03
			30.00		15.245E-03
			60.00		11.208E-03
		END_DATA
	END_SCAN  2
	BEGIN_SCAN  3
		TASK_NAME=MODE_INTERVAL
		PROGRAM=BeamAdjust 1.2
		MEAS_DATE=07-Oct-2010 13:46:12
		LINAC=A4
		MODALITY=X
		INPLANE_AXIS_DIR=TARGET_GUN
		CROSSPLANE_AXIS_DIR=LEFT_RIGHT
		DEPTH_AXIS_DIR=UP_DOWN
		ENERGY=6.00
		SSD=950.00
		WEDGE=None
		FIELD_INPLANE=100.00
		FIELD_CROSSPLANE=100.00
		FIELD_TYPE=RECTANGULAR
		GANTRY=0.00
		GANTRY_UPRIGHT_POSITION=0
		GANTRY_ROTATION=CW
		COLL_ANGLE=90.00
		COLL_OFFSET_INPLANE=0.00
		COLL_OFFSET_CROSSPLANE=0.00
		SCAN_DEVICE=STARCHECK
		ELECTROMETER=2D_ARRAY_INTERFACE
		DETECTOR=STARCHECK
		SCAN_CURVETYPE=CROSSPLANE_PROFILE
		SCAN_DEPTH=0.00
		SCAN_OFFAXIS_INPLANE=-50.00
		SCAN_ANGLE=0.00
		SCAN_DIAGONAL=NOT_DIAGONAL
		MEAS_PRESET=TIME_PRESET
		MEAS_TIME=10.000
		MEAS_UNIT=GY
		PRESSURE=1013.25
		TEMPERATURE=20.00
		NORM_TEMPERATURE=20.00
		CORRECTION_FACTOR=1.0000
		CORRECTIONS=AIR_DENSITY_CORR;
		BEGIN_DATA
			-30.00		386.44E-03
			-15.00		372.85E-03
			15.00		391.30E-03
			30.00		391.95E-03
		END_DATA
	END_SCAN  3
	BEGIN_SCAN  4
		TASK_NAME=MODE_INTERVAL
		PROGRAM=BeamAdjust 1.2
		MEAS_DATE=07-Oct-2010 13:46:12
		LINAC=A4
		MODALITY=X
		INPLANE_AXIS_DIR=TARGET_GUN
		CROSSPLANE_AXIS_DIR=LEFT_RIGHT
		DEPTH_AXIS_DIR=UP_DOWN
		ENERGY=6.00
		SSD=950.00
		WEDGE=None
		FIELD_INPLANE=100.00
		FIELD_CROSSPLANE=100.00
		FIELD_TYPE=RECTANGULAR
		GANTRY=0.00
		GANTRY_UPRIGHT_POSITION=0
		GANTRY_ROTATION=CW
		COLL_ANGLE=90.00
		COLL_OFFSET_INPLANE=0.00
		COLL_OFFSET_CROSSPLANE=0.00
		SCAN_DEVICE=STARCHECK
		ELECTROMETER=2D_ARRAY_INTERFACE
		DETECTOR=STARCHECK
		SCAN_CURVETYPE=CROSSPLANE_PROFILE
		SCAN_DEPTH=0.00
		SCAN_OFFAXIS_INPLANE=0.00
		SCAN_ANGLE=0.00
		SCAN_DIAGONAL=NOT_DIAGONAL
		MEAS_PRESET=TIME_PRESET
		MEAS_TIME=10.000
		MEAS_UNIT=GY
		PRESSURE=1013.25
		TEMPERATURE=20.00
		NORM_TEMPERATURE=20.00
		CORRECTION_FACTOR=1.0000
		CORRECTIONS=AIR_DENSITY_CORR;
		BEGIN_DATA
			-126.00		6.3902E-03
			-123.00		7.1576E-03
			-120.00		7.5671E-03
			-117.00		8.3539E-03
			-114.00		9.0973E-03
			-111.00		8.7696E-03
			-108.00		9.7190E-03
			-105.00		10.213E-03
			-102.00		10.815E-03
			-99.00		11.752E-03
			-96.00		12.808E-03
			-93.00		14.115E-03
			-90.00		15.013E-03
			-87.00		16.275E-03
			-84.00		17.907E-03
			-81.00		19.402E-03
			-78.00		20.815E-03
			-75.00		23.231E-03
			-72.00		26.048E-03
			-69.00		28.922E-03
			-66.00		32.566E-03
			-63.00		36.342E-03
			-60.00		41.615E-03
			-57.00		49.640E-03
			-54.00		61.512E-03
			-51.00		87.873E-03
			-48.00		164.10E-03
			-45.00		437.40E-03
			-42.00		593.27E-03
			-39.00		630.92E-03
			-36.00		645.41E-03
			-33.00		649.37E-03
			-30.00		653.19E-03
			-27.00		656.62E-03
			-24.00		659.68E-03
			-21.00		659.63E-03
			-18.00		665.49E-03
			-15.00		665.00E-03
			-12.00		665.49E-03
			-9.00		669.83E-03
			-6.00		669.77E-03
			0.00		667.24E-03
			6.00		670.05E-03
			9.00		669.56E-03
			12.00		667.94E-03
			15.00		668.72E-03
			18.00		668.84E-03
			21.00		666.14E-03
			24.00		662.16E-03
			27.00		666.08E-03
			30.00		665.46E-03
			33.00		664.35E-03
			36.00		662.73E-03
			39.00		659.77E-03
			42.00		654.96E-03
			45.00		647.00E-03
			48.00		630.71E-03
			51.00		587.71E-03
			54.00		395.22E-03
			57.00		142.19E-03
			60.00		81.791E-03
			63.00		60.356E-03
			66.00		48.339E-03
			69.00		40.950E-03
			72.00		35.500E-03
			75.00		31.661E-03
			78.00		28.142E-03
			81.00		25.543E-03
			84.00		22.562E-03
			87.00		20.532E-03
			90.00		19.100E-03
			93.00		17.961E-03
			96.00		15.304E-03
			99.00		14.465E-03
			102.00		13.613E-03
			105.00		12.445E-03
			108.00		11.753E-03
			111.00		10.509E-03
			114.00		9.7681E-03
			117.00		9.2411E-03
			120.00		8.0756E-03
			123.00		8.1227E-03
			126.00		7.7501E-03
		END_DATA
	END_SCAN  4
	BEGIN_SCAN  5
		TASK_NAME=MODE_INTERVAL
		PROGRAM=BeamAdjust 1.2
		MEAS_DATE=07-Oct-2010 13:46:12
		LINAC=A4
		MODALITY=X
		INPLANE_AXIS_DIR=TARGET_GUN
		CROSSPLANE_AXIS_DIR=LEFT_RIGHT
		DEPTH_AXIS_DIR=UP_DOWN
		ENERGY=6.00
		SSD=950.00
		WEDGE=None
		FIELD_INPLANE=100.00
		FIELD_CROSSPLANE=100.00
		FIELD_TYPE=RECTANGULAR
		GANTRY=0.00
		GANTRY_UPRIGHT_POSITION=0
		GANTRY_ROTATION=CW
		COLL_ANGLE=90.00
		COLL_OFFSET_INPLANE=0.00
		COLL_OFFSET_CROSSPLANE=0.00
		SCAN_DEVICE=STARCHECK
		ELECTROMETER=2D_ARRAY_INTERFACE
		DETECTOR=STARCHECK
		SCAN_CURVETYPE=CROSSPLANE_PROFILE
		SCAN_DEPTH=0.00
		SCAN_OFFAXIS_INPLANE=50.00
		SCAN_ANGLE=0.00
		SCAN_DIAGONAL=NOT_DIAGONAL
		MEAS_PRESET=TIME_PRESET
		MEAS_TIME=10.000
		MEAS_UNIT=GY
		PRESSURE=1013.25
		TEMPERATURE=20.00
		NORM_TEMPERATURE=20.00
		CORRECTION_FACTOR=1.0000
		CORRECTIONS=AIR_DENSITY_CORR;
		BEGIN_DATA
			-30.00		261.98E-03
			-15.00		284.83E-03
			15.00		266.82E-03
			30.00		256.89E-03
		END_DATA
	END_SCAN  5
	BEGIN_SCAN  6
		TASK_NAME=MODE_INTERVAL
		PROGRAM=BeamAdjust 1.2
		MEAS_DATE=07-Oct-2010 13:46:12
		LINAC=A4
		MODALITY=X
		INPLANE_AXIS_DIR=TARGET_GUN
		CROSSPLANE_AXIS_DIR=LEFT_RIGHT
		DEPTH_AXIS_DIR=UP_DOWN
		ENERGY=6.00
		SSD=950.00
		WEDGE=None
		FIELD_INPLANE=100.00
		FIELD_CROSSPLANE=100.00
		FIELD_TYPE=RECTANGULAR
		GANTRY=0.00
		GANTRY_UPRIGHT_POSITION=0
		GANTRY_ROTATION=CW
		COLL_ANGLE=90.00
		COLL_OFFSET_INPLANE=0.00
		COLL_OFFSET_CROSSPLANE=0.00
		SCAN_DEVICE=STARCHECK
		ELECTROMETER=2D_ARRAY_INTERFACE
		DETECTOR=STARCHECK
		SCAN_CURVETYPE=CROSSPLANE_PROFILE
		SCAN_DEPTH=0.00
		SCAN_OFFAXIS_INPLANE=100.00
		SCAN_ANGLE=0.00
		SCAN_DIAGONAL=NOT_DIAGONAL
		MEAS_PRESET=TIME_PRESET
		MEAS_TIME=10.000
		MEAS_UNIT=GY
		PRESSURE=1013.25
		TEMPERATURE=20.00
		NORM_TEMPERATURE=20.00
		CORRECTION_FACTOR=1.0000
		CORRECTIONS=AIR_DENSITY_CORR;
		BEGIN_DATA
			-60.00		9.6050E-03
			-30.00		14.626E-03
			30.00		14.939E-03
			60.00		9.9639E-03
		END_DATA
	END_SCAN  6
	BEGIN_SCAN  7
		TASK_NAME=MODE_INTERVAL
		PROGRAM=BeamAdjust 1.2
		MEAS_DATE=07-Oct-2010 13:46:12
		LINAC=A4
		MODALITY=X
		INPLANE_AXIS_DIR=TARGET_GUN
		CROSSPLANE_AXIS_DIR=LEFT_RIGHT
		DEPTH_AXIS_DIR=UP_DOWN
		ENERGY=6.00
		SSD=950.00
		WEDGE=None
		FIELD_INPLANE=100.00
		FIELD_CROSSPLANE=100.00
		FIELD_TYPE=RECTANGULAR
		GANTRY=0.00
		GANTRY_UPRIGHT_POSITION=0
		GANTRY_ROTATION=CW
		COLL_ANGLE=90.00
		COLL_OFFSET_INPLANE=0.00
		COLL_OFFSET_CROSSPLANE=0.00
		SCAN_DEVICE=STARCHECK
		ELECTROMETER=2D_ARRAY_INTERFACE
		DETECTOR=STARCHECK
		SCAN_CURVETYPE=CROSSPLANE_PROFILE
		SCAN_DEPTH=0.00
		SCAN_OFFAXIS_INPLANE=130.00
		SCAN_ANGLE=0.00
		SCAN_DIAGONAL=NOT_DIAGONAL
		MEAS_PRESET=TIME_PRESET
		MEAS_TIME=10.000
		MEAS_UNIT=GY
		PRESSURE=1013.25
		TEMPERATURE=20.00
		NORM_TEMPERATURE=20.00
		CORRECTION_FACTOR=1.0000
		CORRECTIONS=AIR_DENSITY_CORR;
		BEGIN_DATA
			-130.00		1.7736E-03
			-80.00		4.4319E-03
			-40.00		7.8449E-03
			40.00		7.6045E-03
			80.00		4.8629E-03
			130.00		2.4467E-03
		END_DATA
	END_SCAN  7
	BEGIN_SCAN  8
		TASK_NAME=MODE_INTERVAL
		PROGRAM=BeamAdjust 1.2
		MEAS_DATE=07-Oct-2010 13:46:12
		LINAC=A4
		MODALITY=X
		INPLANE_AXIS_DIR=TARGET_GUN
		CROSSPLANE_AXIS_DIR=LEFT_RIGHT
		DEPTH_AXIS_DIR=UP_DOWN
		ENERGY=6.00
		SSD=950.00
		WEDGE=None
		FIELD_INPLANE=100.00
		FIELD_CROSSPLANE=100.00
		FIELD_TYPE=RECTANGULAR
		GANTRY=0.00
		GANTRY_UPRIGHT_POSITION=0
		GANTRY_ROTATION=CW
		COLL_ANGLE=90.00
		COLL_OFFSET_INPLANE=0.00
		COLL_OFFSET_CROSSPLANE=0.00
		SCAN_DEVICE=STARCHECK
		ELECTROMETER=2D_ARRAY_INTERFACE
		DETECTOR=STARCHECK
		SCAN_CURVETYPE=INPLANE_PROFILE
		SCAN_DEPTH=0.00
		SCAN_OFFAXIS_CROSSPLANE=-130.00
		SCAN_ANGLE=0.00
		SCAN_DIAGONAL=NOT_DIAGONAL
		MEAS_PRESET=TIME_PRESET
		MEAS_TIME=10.000
		MEAS_UNIT=GY
		PRESSURE=1013.25
		TEMPERATURE=20.00
		NORM_TEMPERATURE=20.00
		CORRECTION_FACTOR=1.0000
		CORRECTIONS=AIR_DENSITY_CORR;
		BEGIN_DATA
			-130.00		2.2074E-03
			-125.00		2.7391E-03
			-120.00		2.9659E-03
			-115.00		3.4604E-03
			-110.00		3.1111E-03
			-105.00		3.8346E-03
			-100.00		3.8071E-03
			-95.00		4.3039E-03
			-90.00		4.4201E-03
			-85.00		3.9479E-03
			-80.00		3.9790E-03
			-75.00		4.6565E-03
			-70.00		5.0246E-03
			-65.00		5.4370E-03
			-60.00		5.0453E-03
			-55.00		5.3845E-03
			-50.00		4.2019E-03
			-45.00		4.6492E-03
			-40.00		4.7735E-03
			-35.00		5.3287E-03
			-30.00		5.2417E-03
			-25.00		4.7234E-03
			-20.00		5.0292E-03
			-15.00		4.7708E-03
			-10.00		5.1401E-03
			-5.00		5.7819E-03
			0.00		5.7391E-03
			5.00		6.6198E-03
			10.00		5.6063E-03
			15.00		5.4143E-03
			20.00		5.5560E-03
			25.00		4.7248E-03
			30.00		5.2989E-03
			35.00		5.2945E-03
			40.00		5.0033E-03
			45.00		4.4244E-03
			50.00		4.7349E-03
			55.00		4.4438E-03
			60.00		4.4336E-03
			65.00		3.9705E-03
			70.00		3.8334E-03
			75.00		4.3493E-03
			80.00		3.9192E-03
			85.00		3.8252E-03
			90.00		3.2619E-03
			95.00		3.6484E-03
			100.00		3.0504E-03
			105.00		2.4860E-03
			110.00		2.7379E-03
			115.00		2.6470E-03
			120.00		2.6092E-03
			125.00		2.7833E-03
			130.00		1.7736E-03
		END_DATA
	END_SCAN  8
	BEGIN_SCAN  9
		TASK_NAME=MODE_INTERVAL
		PROGRAM=BeamAdjust 1.2
		MEAS_DATE=07-Oct-2010 13:46:12
		LINAC=A4
		MODALITY=X
		INPLANE_AXIS_DIR=TARGET_GUN
		CROSSPLANE_AXIS_DIR=LEFT_RIGHT
		DEPTH_AXIS_DIR=UP_DOWN
		ENERGY=6.00
		SSD=950.00
		WEDGE=None
		FIELD_INPLANE=100.00
		FIELD_CROSSPLANE=100.00
		FIELD_TYPE=RECTANGULAR
		GANTRY=0.00
		GANTRY_UPRIGHT_POSITION=0
		GANTRY_ROTATION=CW
		COLL_ANGLE=90.00
		COLL_OFFSET_INPLANE=0.00
		COLL_OFFSET_CROSSPLANE=0.00
		SCAN_DEVICE=STARCHECK
		ELECTROMETER=2D_ARRAY_INTERFACE
		DETECTOR=STARCHECK
		SCAN_CURVETYPE=INPLANE_PROFILE
		SCAN_DEPTH=0.00
		SCAN_OFFAXIS_CROSSPLANE=-100.00
		SCAN_ANGLE=0.00
		SCAN_DIAGONAL=NOT_DIAGONAL
		MEAS_PRESET=TIME_PRESET
		MEAS_TIME=10.000
		MEAS_UNIT=GY
		PRESSURE=1013.25
		TEMPERATURE=20.00
		NORM_TEMPERATURE=20.00
		CORRECTION_FACTOR=1.0000
		CORRECTIONS=AIR_DENSITY_CORR;
		BEGIN_DATA
			-60.00		8.1892E-03
			-30.00		10.010E-03
			30.00		9.8834E-03
			60.00		7.3710E-03
		END_DATA
	END_SCAN  9
	BEGIN_SCAN  10
		TASK_NAME=MODE_INTERVAL
		PROGRAM=BeamAdjust 1.2
		MEAS_DATE=07-Oct-2010 13:46:12
		LINAC=A4
		MODALITY=X
		INPLANE_AXIS_DIR=TARGET_GUN
		CROSSPLANE_AXIS_DIR=LEFT_RIGHT
		DEPTH_AXIS_DIR=UP_DOWN
		ENERGY=6.00
		SSD=950.00
		WEDGE=None
		FIELD_INPLANE=100.00
		FIELD_CROSSPLANE=100.00
		FIELD_TYPE=RECTANGULAR
		GANTRY=0.00
		GANTRY_UPRIGHT_POSITION=0
		GANTRY_ROTATION=CW
		COLL_ANGLE=90.00
		COLL_OFFSET_INPLANE=0.00
		COLL_OFFSET_CROSSPLANE=0.00
		SCAN_DEVICE=STARCHECK
		ELECTROMETER=2D_ARRAY_INTERFACE
		DETECTOR=STARCHECK
		SCAN_CURVETYPE=INPLANE_PROFILE
		SCAN_DEPTH=0.00
		SCAN_OFFAXIS_CROSSPLANE=-50.00
		SCAN_ANGLE=0.00
		SCAN_DIAGONAL=NOT_DIAGONAL
		MEAS_PRESET=TIME_PRESET
		MEAS_TIME=10.000
		MEAS_UNIT=GY
		PRESSURE=1013.25
		TEMPERATURE=20.00
		NORM_TEMPERATURE=20.00
		CORRECTION_FACTOR=1.0000
		CORRECTIONS=AIR_DENSITY_CORR;
		BEGIN_DATA
			-30.00		91.914E-03
			-15.00		94.072E-03
			15.00		91.095E-03
			30.00		85.030E-03
		END_DATA
	END_SCAN  10
	BEGIN_SCAN  11
		TASK_NAME=MODE_INTERVAL
		PROGRAM=BeamAdjust 1.2
		MEAS_DATE=07-Oct-2010 13:46:12
		LINAC=A4
		MODALITY=X
		INPLANE_AXIS_DIR=TARGET_GUN
		CROSSPLANE_AXIS_DIR=LEFT_RIGHT
		DEPTH_AXIS_DIR=UP_DOWN
		ENERGY=6.00
		SSD=950.00
		WEDGE=None
		FIELD_INPLANE=100.00
		FIELD_CROSSPLANE=100.00
		FIELD_TYPE=RECTANGULAR
		GANTRY=0.00
		GANTRY_UPRIGHT_POSITION=0
		GANTRY_ROTATION=CW
		COLL_ANGLE=90.00
		COLL_OFFSET_INPLANE=0.00
		COLL_OFFSET_CROSSPLANE=0.00
		SCAN_DEVICE=STARCHECK
		ELECTROMETER=2D_ARRAY_INTERFACE
		DETECTOR=STARCHECK
		SCAN_CURVETYPE=INPLANE_PROFILE
		SCAN_DEPTH=0.00
		SCAN_OFFAXIS_CROSSPLANE=0.00
		SCAN_ANGLE=0.00
		SCAN_DIAGONAL=NOT_DIAGONAL
		MEAS_PRESET=TIME_PRESET
		MEAS_TIME=10.000
		MEAS_UNIT=GY
		PRESSURE=1013.25
		TEMPERATURE=20.00
		NORM_TEMPERATURE=20.00
		CORRECTION_FACTOR=1.0000
		CORRECTIONS=AIR_DENSITY_CORR;
		BEGIN_DATA
			-126.00		9.6417E-03
			-123.00		9.2055E-03
			-120.00		10.467E-03
			-117.00		11.619E-03
			-114.00		12.454E-03
			-111.00		12.822E-03
			-108.00		13.882E-03
			-105.00		14.861E-03
			-102.00		16.143E-03
			-99.00		16.675E-03
			-96.00		18.194E-03
			-93.00		20.723E-03
			-90.00		21.921E-03
			-87.00		23.489E-03
			-84.00		25.771E-03
			-81.00		28.493E-03
			-78.00		30.823E-03
			-75.00		33.314E-03
			-72.00		37.193E-03
			-69.00		40.651E-03
			-66.00		46.385E-03
			-63.00		52.623E-03
			-60.00		62.460E-03
			-57.00		82.814E-03
			-54.00		134.41E-03
			-51.00		309.74E-03
			-48.00		557.87E-03
			-45.00		623.32E-03
			-42.00		643.10E-03
			-39.00		652.28E-03
			-36.00		657.45E-03
			-33.00		661.07E-03
			-30.00		665.40E-03
			-27.00		665.77E-03
			-24.00		665.14E-03
			-21.00		664.18E-03
			-18.00		670.52E-03
			-15.00		669.36E-03
			-12.00		670.80E-03
			-9.00		671.21E-03
			-6.00		668.77E-03
			0.00		667.24E-03
			6.00		672.02E-03
			9.00		671.03E-03
			12.00		670.00E-03
			15.00		667.84E-03
			18.00		663.63E-03
			21.00		663.92E-03
			24.00		660.08E-03
			27.00		661.80E-03
			30.00		657.24E-03
			33.00		655.34E-03
			36.00		652.98E-03
			39.00		641.84E-03
			42.00		630.21E-03
			45.00		596.32E-03
			48.00		431.72E-03
			51.00		188.49E-03
			54.00		98.952E-03
			57.00		69.975E-03
			60.00		57.037E-03
			63.00		49.276E-03
			66.00		43.974E-03
			69.00		38.955E-03
			72.00		35.480E-03
			75.00		31.535E-03
			78.00		28.203E-03
			81.00		26.729E-03
			84.00		25.038E-03
			87.00		22.909E-03
			90.00		21.225E-03
			93.00		19.476E-03
			96.00		18.450E-03
			99.00		17.118E-03
			102.00		14.921E-03
			105.00		14.678E-03
			108.00		13.566E-03
			111.00		12.770E-03
			114.00		11.912E-03
			117.00		11.180E-03
			120.00		10.349E-03
			123.00		9.8593E-03
			126.00		8.8253E-03
		END_DATA
	END_SCAN  11
	BEGIN_SCAN  12
		TASK_NAME=MODE_INTERVAL
		PROGRAM=BeamAdjust 1.2
		MEAS_DATE=07-Oct-2010 13:46:12
		LINAC=A4
		MODALITY=X
		INPLANE_AXIS_DIR=TARGET_GUN
		CROSSPLANE_AXIS_DIR=LEFT_RIGHT
		DEPTH_AXIS_DIR=UP_DOWN
		ENERGY=6.00
		SSD=950.00
		WEDGE=None
		FIELD_INPLANE=100.00
		FIELD_CROSSPLANE=100.00
		FIELD_TYPE=RECTANGULAR
		GANTRY=0.00
		GANTRY_UPRIGHT_POSITION=0
		GANTRY_ROTATION=CW
		COLL_ANGLE=90.00
		COLL_OFFSET_INPLANE=0.00
		COLL_OFFSET_CROSSPLANE=0.00
		SCAN_DEVICE=STARCHECK
		ELECTROMETER=2D_ARRAY_INTERFACE
		DETECTOR=STARCHECK
		SCAN_CURVETYPE=INPLANE_PROFILE
		SCAN_DEPTH=0.00
		SCAN_OFFAXIS_CROSSPLANE=50.00
		SCAN_ANGLE=0.00
		SCAN_DIAGONAL=NOT_DIAGONAL
		MEAS_PRESET=TIME_PRESET
		MEAS_TIME=10.000
		MEAS_UNIT=GY
		PRESSURE=1013.25
		TEMPERATURE=20.00
		NORM_TEMPERATURE=20.00
		CORRECTION_FACTOR=1.0000
		CORRECTIONS=AIR_DENSITY_CORR;
		BEGIN_DATA
			-30.00		619.09E-03
			-15.00		624.40E-03
			15.00		622.74E-03
			30.00		620.38E-03
		END_DATA
	END_SCAN  12
	BEGIN_SCAN  13
		TASK_NAME=MODE_INTERVAL
		PROGRAM=BeamAdjust 1.2
		MEAS_DATE=07-Oct-2010 13:46:12
		LINAC=A4
		MODALITY=X
		INPLANE_AXIS_DIR=TARGET_GUN
		CROSSPLANE_AXIS_DIR=LEFT_RIGHT
		DEPTH_AXIS_DIR=UP_DOWN
		ENERGY=6.00
		SSD=950.00
		WEDGE=None
		FIELD_INPLANE=100.00
		FIELD_CROSSPLANE=100.00
		FIELD_TYPE=RECTANGULAR
		GANTRY=0.00
		GANTRY_UPRIGHT_POSITION=0
		GANTRY_ROTATION=CW
		COLL_ANGLE=90.00
		COLL_OFFSET_INPLANE=0.00
		COLL_OFFSET_CROSSPLANE=0.00
		SCAN_DEVICE=STARCHECK
		ELECTROMETER=2D_ARRAY_INTERFACE
		DETECTOR=STARCHECK
		SCAN_CURVETYPE=INPLANE_PROFILE
		SCAN_DEPTH=0.00
		SCAN_OFFAXIS_CROSSPLANE=100.00
		SCAN_ANGLE=0.00
		SCAN_DIAGONAL=NOT_DIAGONAL
		MEAS_PRESET=TIME_PRESET
		MEAS_TIME=10.000
		MEAS_UNIT=GY
		PRESSURE=1013.25
		TEMPERATURE=20.00
		NORM_TEMPERATURE=20.00
		CORRECTION_FACTOR=1.0000
		CORRECTIONS=AIR_DENSITY_CORR;
		BEGIN_DATA
			-60.00		9.5414E-03
			-30.00		11.769E-03
			30.00		11.833E-03
			60.00		8.4988E-03
		END_DATA
	END_SCAN  13
	BEGIN_SCAN  14
		TASK_NAME=MODE_INTERVAL
		PROGRAM=BeamAdjust 1.2
		MEAS_DATE=07-Oct-2010 13:46:12
		LINAC=A4
		MODALITY=X
		INPLANE_AXIS_DIR=TARGET_GUN
		CROSSPLANE_AXIS_DIR=LEFT_RIGHT
		DEPTH_AXIS_DIR=UP_DOWN
		ENERGY=6.00
		SSD=950.00
		WEDGE=None
		FIELD_INPLANE=100.00
		FIELD_CROSSPLANE=100.00
		FIELD_TYPE=RECTANGULAR
		GANTRY=0.00
		GANTRY_UPRIGHT_POSITION=0
		GANTRY_ROTATION=CW
		COLL_ANGLE=90.00
		COLL_OFFSET_INPLANE=0.00
		COLL_OFFSET_CROSSPLANE=0.00
		SCAN_DEVICE=STARCHECK
		ELECTROMETER=2D_ARRAY_INTERFACE
		DETECTOR=STARCHECK
		SCAN_CURVETYPE=INPLANE_PROFILE
		SCAN_DEPTH=0.00
		SCAN_OFFAXIS_CROSSPLANE=130.00
		SCAN_ANGLE=0.00
		SCAN_DIAGONAL=NOT_DIAGONAL
		MEAS_PRESET=TIME_PRESET
		MEAS_TIME=10.000
		MEAS_UNIT=GY
		PRESSURE=1013.25
		TEMPERATURE=20.00
		NORM_TEMPERATURE=20.00
		CORRECTION_FACTOR=1.0000
		CORRECTIONS=AIR_DENSITY_CORR;
		BEGIN_DATA
			-130.00		2.3937E-03
			-125.00		3.3120E-03
			-120.00		2.9263E-03
			-115.00		3.1391E-03
			-110.00		3.2200E-03
			-105.00		3.5458E-03
			-100.00		3.7327E-03
			-95.00		3.4102E-03
			-90.00		3.1886E-03
			-85.00		4.2898E-03
			-80.00		4.2093E-03
			-75.00		4.0651E-03
			-70.00		4.4938E-03
			-65.00		4.4971E-03
			-60.00		5.3780E-03
			-55.00		5.3038E-03
			-50.00		4.8851E-03
			-45.00		5.3923E-03
			-40.00		5.8391E-03
			-35.00		5.8882E-03
			-30.00		6.0640E-03
			-25.00		5.7269E-03
			-20.00		6.1820E-03
			-15.00		6.0500E-03
			-10.00		5.3822E-03
			-5.00		6.6026E-03
			0.00		6.6696E-03
			5.00		6.3971E-03
			10.00		6.4007E-03
			15.00		6.9332E-03
			20.00		6.0646E-03
			25.00		6.0960E-03
			30.00		5.1944E-03
			35.00		5.9496E-03
			40.00		6.1418E-03
			45.00		5.5037E-03
			50.00		4.9136E-03
			55.00		5.6389E-03
			60.00		5.1490E-03
			65.00		4.3137E-03
			70.00		3.9434E-03
			75.00		4.5547E-03
			80.00		4.4055E-03
			85.00		4.4642E-03
			90.00		3.5844E-03
			95.00		3.6799E-03
			100.00		3.7680E-03
			105.00		2.9461E-03
			110.00		2.8024E-03
			115.00		2.8802E-03
			120.00		3.0309E-03
			125.00		2.5736E-03
			130.00		2.4467E-03
		END_DATA
	END_SCAN  14
	BEGIN_SCAN  15
		TASK_NAME=MODE_INTERVAL
		PROGRAM=BeamAdjust 1.2
		MEAS_DATE=07-Oct-2010 13:46:12
		LINAC=A4
		MODALITY=X
		INPLANE_AXIS_DIR=TARGET_GUN
		CROSSPLANE_AXIS_DIR=LEFT_RIGHT
		DEPTH_AXIS_DIR=UP_DOWN
		ENERGY=6.00
		SSD=950.00
		WEDGE=None
		FIELD_INPLANE=100.00
		FIELD_CROSSPLANE=100.00
		FIELD_TYPE=RECTANGULAR
		GANTRY=0.00
		GANTRY_UPRIGHT_POSITION=0
		GANTRY_ROTATION=CW
		COLL_ANGLE=90.00
		COLL_OFFSET_INPLANE=0.00
		COLL_OFFSET_CROSSPLANE=0.00
		SCAN_DEVICE=STARCHECK
		ELECTROMETER=2D_ARRAY_INTERFACE
		DETECTOR=STARCHECK
		SCAN_CURVETYPE=INPLANE_PROFILE
		SCAN_DEPTH=0.00
		SCAN_OFFAXIS_CROSSPLANE=0.00
		SCAN_ANGLE=0.00
		SCAN_DIAGONAL=FIRST_DIAGONAL
		MEAS_PRESET=TIME_PRESET
		MEAS_TIME=10.000
		MEAS_UNIT=GY
		PRESSURE=1013.25
		TEMPERATURE=20.00
		NORM_TEMPERATURE=20.00
		CORRECTION_FACTOR=1.0000
		CORRECTIONS=AIR_DENSITY_CORR;
		BEGIN_DATA
			-172.40		2.2943E-03
			-169.40		2.5893E-03
			-166.40		3.6450E-03
			-163.40		3.8793E-03
			-160.40		3.9221E-03
			-157.40		4.5937E-03
			-154.40		3.7591E-03
			-151.40		3.7357E-03
			-148.40		4.6650E-03
			-145.40		5.2641E-03
			-142.40		5.0320E-03
			-139.40		5.5688E-03
			-136.40		5.6803E-03
			-133.40		6.7343E-03
			-130.40		6.8111E-03
			-127.40		7.0885E-03
			-124.40		7.6555E-03
			-121.40		8.2090E-03
			-118.40		9.2087E-03
			-115.40		10.711E-03
			-112.40		10.359E-03
			-109.40		11.556E-03
			-106.40		12.563E-03
			-103.40		13.017E-03
			-100.40		14.052E-03
			-97.40		16.323E-03
			-94.40		17.652E-03
			-91.40		19.734E-03
			-88.40		21.973E-03
			-85.40		24.127E-03
			-82.40		27.333E-03
			-79.40		31.230E-03
			-76.40		36.419E-03
			-73.40		48.479E-03
			-70.40		75.484E-03
			-67.40		176.35E-03
			-64.40		352.53E-03
			-61.40		503.28E-03
			-58.40		587.03E-03
			-55.40		619.04E-03
			-52.40		633.57E-03
			-49.40		641.77E-03
			-46.40		646.29E-03
			-43.40		649.86E-03
			-40.40		653.60E-03
			-37.40		658.65E-03
			-34.40		658.87E-03
			-31.40		661.26E-03
			-28.40		660.32E-03
			-25.40		662.94E-03
			-22.40		663.49E-03
			-19.40		663.27E-03
			-16.40		666.96E-03
			-13.40		670.06E-03
			0.00		667.24E-03
			13.40		673.34E-03
			16.40		668.56E-03
			19.40		668.26E-03
			22.40		666.17E-03
			25.40		665.43E-03
			28.40		664.46E-03
			31.40		662.47E-03
			34.40		659.88E-03
			37.40		662.33E-03
			40.40		659.88E-03
			43.40		657.09E-03
			46.40		655.72E-03
			49.40		650.04E-03
			52.40		645.94E-03
			55.40		636.20E-03
			58.40		624.96E-03
			61.40		599.45E-03
			64.40		529.29E-03
			67.40		399.72E-03
			70.40		242.36E-03
			73.40		118.90E-03
			76.40		62.781E-03
			79.40		44.414E-03
			82.40		35.825E-03
			85.40		30.666E-03
			88.40		27.075E-03
			91.40		23.591E-03
			94.40		21.419E-03
			97.40		19.636E-03
			100.40		17.424E-03
			103.40		16.410E-03
			106.40		14.860E-03
			109.40		13.594E-03
			112.40		11.718E-03
			115.40		11.683E-03
			118.40		10.170E-03
			121.40		8.9548E-03
			124.40		8.9730E-03
			127.40		8.4198E-03
			130.40		8.2221E-03
			133.40		6.8565E-03
			136.40		6.0070E-03
			139.40		5.7263E-03
			142.40		6.0347E-03
			145.40		5.6406E-03
			148.40		5.5484E-03
			151.40		4.4381E-03
			154.40		4.9619E-03
			157.40		4.6834E-03
			160.40		3.6355E-03
			163.40		3.0948E-03
			166.40		3.3154E-03
			169.40		3.4916E-03
			172.40		3.6100E-03
		END_DATA
	END_SCAN  15
	BEGIN_SCAN  16
		TASK_NAME=MODE_INTERVAL
		PROGRAM=BeamAdjust 1.2
		MEAS_DATE=07-Oct-2010 13:46:12
		LINAC=A4
		MODALITY=X
		INPLANE_AXIS_DIR=GUN_TARGET
		CROSSPLANE_AXIS_DIR=LEFT_RIGHT
		DEPTH_AXIS_DIR=UP_DOWN
		ENERGY=6.00
		SSD=950.00
		WEDGE=None
		FIELD_INPLANE=100.00
		FIELD_CROSSPLANE=100.00
		FIELD_TYPE=RECTANGULAR
		GANTRY=0.00
		GANTRY_UPRIGHT_POSITION=0
		GANTRY_ROTATION=CW
		COLL_ANGLE=90.00
		COLL_OFFSET_INPLANE=0.00
		COLL_OFFSET_CROSSPLANE=0.00
		SCAN_DEVICE=STARCHECK
		ELECTROMETER=2D_ARRAY_INTERFACE
		DETECTOR=STARCHECK
		SCAN_CURVETYPE=INPLANE_PROFILE
		SCAN_DEPTH=0.00
		SCAN_OFFAXIS_CROSSPLANE=0.00
		SCAN_ANGLE=0.00
		SCAN_DIAGONAL=SECOND_DIAGONAL
		MEAS_PRESET=TIME_PRESET
		MEAS_TIME=10.000
		MEAS_UNIT=GY
		PRESSURE=1013.25
		TEMPERATURE=20.00
		NORM_TEMPERATURE=20.00
		CORRECTION_FACTOR=1.0000
		CORRECTIONS=AIR_DENSITY_CORR;
		BEGIN_DATA
			-172.40		2.8429E-03
			-169.40		3.5830E-03
			-166.40		3.2720E-03
			-163.40		3.5511E-03
			-160.40		3.7798E-03
			-157.40		4.3579E-03
			-154.40		4.5697E-03
			-151.40		5.0568E-03
			-148.40		5.4395E-03
			-145.40		5.5104E-03
			-142.40		5.8947E-03
			-139.40		6.0261E-03
			-136.40		6.0816E-03
			-133.40		7.1943E-03
			-130.40		7.4042E-03
			-127.40		8.5620E-03
			-124.40		8.9837E-03
			-121.40		9.8315E-03
			-118.40		10.622E-03
			-115.40		11.248E-03
			-112.40		11.795E-03
			-109.40		13.774E-03
			-106.40		15.241E-03
			-103.40		16.363E-03
			-100.40		18.261E-03
			-97.40		19.877E-03
			-94.40		21.548E-03
			-91.40		24.419E-03
			-88.40		27.147E-03
			-85.40		31.416E-03
			-82.40		37.818E-03
			-79.40		49.052E-03
			-76.40		77.763E-03
			-73.40		179.64E-03
			-70.40		362.41E-03
			-67.40		514.37E-03
			-64.40		593.16E-03
			-61.40		623.64E-03
			-58.40		639.86E-03
			-55.40		646.08E-03
			-52.40		655.23E-03
			-49.40		657.81E-03
			-46.40		660.17E-03
			-43.40		662.41E-03
			-40.40		665.16E-03
			-37.40		667.29E-03
			-34.40		666.61E-03
			-31.40		667.01E-03
			-28.40		669.42E-03
			-25.40		668.35E-03
			-22.40		667.02E-03
			-19.40		670.98E-03
			-16.40		672.27E-03
			-13.40		673.43E-03
			0.00		667.24E-03
			13.40		669.55E-03
			16.40		666.86E-03
			19.40		664.33E-03
			22.40		661.89E-03
			25.40		661.23E-03
			28.40		659.79E-03
			31.40		657.65E-03
			34.40		654.36E-03
			37.40		653.39E-03
			40.40		651.96E-03
			43.40		648.67E-03
			46.40		645.59E-03
			49.40		639.26E-03
			52.40		626.80E-03
			55.40		608.93E-03
			58.40		572.99E-03
			61.40		468.31E-03
			64.40		287.73E-03
			67.40		120.85E-03
			70.40		60.998E-03
			73.40		42.856E-03
			76.40		34.389E-03
			79.40		29.096E-03
			82.40		27.040E-03
			85.40		23.711E-03
			88.40		21.427E-03
			91.40		19.369E-03
			94.40		17.743E-03
			97.40		16.222E-03
			100.40		14.194E-03
			103.40		12.548E-03
			106.40		12.278E-03
			109.40		11.131E-03
			112.40		10.461E-03
			115.40		9.3986E-03
			118.40		8.8987E-03
			121.40		7.9524E-03
			124.40		8.2500E-03
			127.40		7.0438E-03
			130.40		7.0486E-03
			133.40		6.4044E-03
			136.40		5.7705E-03
			139.40		5.7681E-03
			142.40		5.4517E-03
			145.40		5.4418E-03
			148.40		4.7659E-03
			151.40		4.2245E-03
			154.40		3.8757E-03
			157.40		3.9810E-03
			160.40		3.7664E-03
			163.40		3.8584E-03
			166.40		3.7411E-03
			169.40		2.8208E-03
			172.40		2.5245E-03
		END_DATA
	END_SCAN  16
END_SCAN_DATA
