BEGIN_SCAN_DATA
	FORMAT=CC-Export V1.9                  
	FILE_CREATION_DATE=07-Oct-2010 13:45:36
	LAST_MODIFIED=07-Oct-2010 13:45:36
	BEGIN_SCAN  1
		TASK_NAME=MODE_INTERVAL
		PROGRAM=BeamAdjust 1.2
		MEAS_DATE=07-Oct-2010 13:45:36
		LINAC=A4
		MODALITY=X
		INPLANE_AXIS_DIR=TARGET_GUN
		CROSSPLANE_AXIS_DIR=LEFT_RIGHT
		DEPTH_AXIS_DIR=UP_DOWN
		ENERGY=6.00
		SSD=950.00
		WEDGE=None
		FIELD_INPLANE=100.00
		FIELD_CROSSPLANE=100.00
		FIELD_TYPE=RECTANGULAR
		GANTRY=0.00
		GANTRY_UPRIGHT_POSITION=0
		GANTRY_ROTATION=CW
		COLL_ANGLE=90.00
		COLL_OFFSET_INPLANE=0.00
		COLL_OFFSET_CROSSPLANE=0.00
		SCAN_DEVICE=STARCHECK
		ELECTROMETER=2D_ARRAY_INTERFACE
		DETECTOR=STARCHECK
		SCAN_CURVETYPE=CROSSPLANE_PROFILE
		SCAN_DEPTH=0.00
		SCAN_OFFAXIS_INPLANE=-130.00
		SCAN_ANGLE=0.00
		SCAN_DIAGONAL=NOT_DIAGONAL
		MEAS_PRESET=TIME_PRESET
		MEAS_TIME=10.000
		MEAS_UNIT=GY
		PRESSURE=1013.25
		TEMPERATURE=20.00
		NORM_TEMPERATURE=20.00
		CORRECTION_FACTOR=1.0000
		CORRECTIONS=AIR_DENSITY_CORR;
		BEGIN_DATA
			-130.00		2.2519E-03
			-80.00		4.1134E-03
			-40.00		7.5621E-03
			40.00		6.8571E-03
			80.00		4.9627E-03
			130.00		2.9862E-03
		END_DATA
	END_SCAN  1
	BEGIN_SCAN  2
		TASK_NAME=MODE_INTERVAL
		PROGRAM=BeamAdjust 1.2
		MEAS_DATE=07-Oct-2010 13:45:36
		LINAC=A4
		MODALITY=X
		INPLANE_AXIS_DIR=TARGET_GUN
		CROSSPLANE_AXIS_DIR=LEFT_RIGHT
		DEPTH_AXIS_DIR=UP_DOWN
		ENERGY=6.00
		SSD=950.00
		WEDGE=None
		FIELD_INPLANE=100.00
		FIELD_CROSSPLANE=100.00
		FIELD_TYPE=RECTANGULAR
		GANTRY=0.00
		GANTRY_UPRIGHT_POSITION=0
		GANTRY_ROTATION=CW
		COLL_ANGLE=90.00
		COLL_OFFSET_INPLANE=0.00
		COLL_OFFSET_CROSSPLANE=0.00
		SCAN_DEVICE=STARCHECK
		ELECTROMETER=2D_ARRAY_INTERFACE
		DETECTOR=STARCHECK
		SCAN_CURVETYPE=CROSSPLANE_PROFILE
		SCAN_DEPTH=0.00
		SCAN_OFFAXIS_INPLANE=-100.00
		SCAN_ANGLE=0.00
		SCAN_DIAGONAL=NOT_DIAGONAL
		MEAS_PRESET=TIME_PRESET
		MEAS_TIME=10.000
		MEAS_UNIT=GY
		PRESSURE=1013.25
		TEMPERATURE=20.00
		NORM_TEMPERATURE=20.00
		CORRECTION_FACTOR=1.0000
		CORRECTIONS=AIR_DENSITY_CORR;
		BEGIN_DATA
			-60.00		9.7578E-03
			-30.00		13.918E-03
			30.00		15.559E-03
			60.00		11.209E-03
		END_DATA
	END_SCAN  2
	BEGIN_SCAN  3
		TASK_NAME=MODE_INTERVAL
		PROGRAM=BeamAdjust 1.2
		MEAS_DATE=07-Oct-2010 13:45:36
		LINAC=A4
		MODALITY=X
		INPLANE_AXIS_DIR=TARGET_GUN
		CROSSPLANE_AXIS_DIR=LEFT_RIGHT
		DEPTH_AXIS_DIR=UP_DOWN
		ENERGY=6.00
		SSD=950.00
		WEDGE=None
		FIELD_INPLANE=100.00
		FIELD_CROSSPLANE=100.00
		FIELD_TYPE=RECTANGULAR
		GANTRY=0.00
		GANTRY_UPRIGHT_POSITION=0
		GANTRY_ROTATION=CW
		COLL_ANGLE=90.00
		COLL_OFFSET_INPLANE=0.00
		COLL_OFFSET_CROSSPLANE=0.00
		SCAN_DEVICE=STARCHECK
		ELECTROMETER=2D_ARRAY_INTERFACE
		DETECTOR=STARCHECK
		SCAN_CURVETYPE=CROSSPLANE_PROFILE
		SCAN_DEPTH=0.00
		SCAN_OFFAXIS_INPLANE=-50.00
		SCAN_ANGLE=0.00
		SCAN_DIAGONAL=NOT_DIAGONAL
		MEAS_PRESET=TIME_PRESET
		MEAS_TIME=10.000
		MEAS_UNIT=GY
		PRESSURE=1013.25
		TEMPERATURE=20.00
		NORM_TEMPERATURE=20.00
		CORRECTION_FACTOR=1.0000
		CORRECTIONS=AIR_DENSITY_CORR;
		BEGIN_DATA
			-30.00		382.87E-03
			-15.00		372.43E-03
			15.00		389.17E-03
			30.00		389.71E-03
		END_DATA
	END_SCAN  3
	BEGIN_SCAN  4
		TASK_NAME=MODE_INTERVAL
		PROGRAM=BeamAdjust 1.2
		MEAS_DATE=07-Oct-2010 13:45:36
		LINAC=A4
		MODALITY=X
		INPLANE_AXIS_DIR=TARGET_GUN
		CROSSPLANE_AXIS_DIR=LEFT_RIGHT
		DEPTH_AXIS_DIR=UP_DOWN
		ENERGY=6.00
		SSD=950.00
		WEDGE=None
		FIELD_INPLANE=100.00
		FIELD_CROSSPLANE=100.00
		FIELD_TYPE=RECTANGULAR
		GANTRY=0.00
		GANTRY_UPRIGHT_POSITION=0
		GANTRY_ROTATION=CW
		COLL_ANGLE=90.00
		COLL_OFFSET_INPLANE=0.00
		COLL_OFFSET_CROSSPLANE=0.00
		SCAN_DEVICE=STARCHECK
		ELECTROMETER=2D_ARRAY_INTERFACE
		DETECTOR=STARCHECK
		SCAN_CURVETYPE=CROSSPLANE_PROFILE
		SCAN_DEPTH=0.00
		SCAN_OFFAXIS_INPLANE=0.00
		SCAN_ANGLE=0.00
		SCAN_DIAGONAL=NOT_DIAGONAL
		MEAS_PRESET=TIME_PRESET
		MEAS_TIME=10.000
		MEAS_UNIT=GY
		PRESSURE=1013.25
		TEMPERATURE=20.00
		NORM_TEMPERATURE=20.00
		CORRECTION_FACTOR=1.0000
		CORRECTIONS=AIR_DENSITY_CORR;
		BEGIN_DATA
			-126.00		6.4409E-03
			-123.00		7.1531E-03
			-120.00		7.8198E-03
			-117.00		8.1197E-03
			-114.00		8.1988E-03
			-111.00		8.7934E-03
			-108.00		9.2073E-03
			-105.00		10.451E-03
			-102.00		10.628E-03
			-99.00		11.755E-03
			-96.00		12.547E-03
			-93.00		13.700E-03
			-90.00		14.743E-03
			-87.00		15.881E-03
			-84.00		17.947E-03
			-81.00		18.935E-03
			-78.00		21.280E-03
			-75.00		23.020E-03
			-72.00		25.130E-03
			-69.00		28.464E-03
			-66.00		32.188E-03
			-63.00		35.658E-03
			-60.00		41.020E-03
			-57.00		48.616E-03
			-54.00		59.627E-03
			-51.00		84.050E-03
			-48.00		149.82E-03
			-45.00		405.52E-03
			-42.00		585.56E-03
			-39.00		627.42E-03
			-36.00		643.71E-03
			-33.00		647.41E-03
			-30.00		651.11E-03
			-27.00		655.13E-03
			-24.00		658.28E-03
			-21.00		658.38E-03
			-18.00		663.83E-03
			-15.00		663.83E-03
			-12.00		664.10E-03
			-9.00		668.17E-03
			-6.00		668.54E-03
			0.00		666.76E-03
			6.00		668.42E-03
			9.00		668.08E-03
			12.00		666.37E-03
			15.00		667.94E-03
			18.00		667.13E-03
			21.00		664.75E-03
			24.00		660.86E-03
			27.00		665.03E-03
			30.00		664.40E-03
			33.00		662.90E-03
			36.00		661.64E-03
			39.00		658.92E-03
			42.00		654.12E-03
			45.00		646.58E-03
			48.00		631.53E-03
			51.00		593.37E-03
			54.00		425.91E-03
			57.00		155.32E-03
			60.00		84.610E-03
			63.00		61.676E-03
			66.00		48.867E-03
			69.00		41.626E-03
			72.00		35.922E-03
			75.00		31.936E-03
			78.00		28.278E-03
			81.00		25.528E-03
			84.00		23.597E-03
			87.00		20.692E-03
			90.00		19.690E-03
			93.00		17.346E-03
			96.00		15.848E-03
			99.00		14.962E-03
			102.00		13.471E-03
			105.00		12.314E-03
			108.00		11.753E-03
			111.00		10.563E-03
			114.00		9.9703E-03
			117.00		9.4126E-03
			120.00		8.0593E-03
			123.00		8.2294E-03
			126.00		8.0076E-03
		END_DATA
	END_SCAN  4
	BEGIN_SCAN  5
		TASK_NAME=MODE_INTERVAL
		PROGRAM=BeamAdjust 1.2
		MEAS_DATE=07-Oct-2010 13:45:36
		LINAC=A4
		MODALITY=X
		INPLANE_AXIS_DIR=TARGET_GUN
		CROSSPLANE_AXIS_DIR=LEFT_RIGHT
		DEPTH_AXIS_DIR=UP_DOWN
		ENERGY=6.00
		SSD=950.00
		WEDGE=None
		FIELD_INPLANE=100.00
		FIELD_CROSSPLANE=100.00
		FIELD_TYPE=RECTANGULAR
		GANTRY=0.00
		GANTRY_UPRIGHT_POSITION=0
		GANTRY_ROTATION=CW
		COLL_ANGLE=90.00
		COLL_OFFSET_INPLANE=0.00
		COLL_OFFSET_CROSSPLANE=0.00
		SCAN_DEVICE=STARCHECK
		ELECTROMETER=2D_ARRAY_INTERFACE
		DETECTOR=STARCHECK
		SCAN_CURVETYPE=CROSSPLANE_PROFILE
		SCAN_DEPTH=0.00
		SCAN_OFFAXIS_INPLANE=50.00
		SCAN_ANGLE=0.00
		SCAN_DIAGONAL=NOT_DIAGONAL
		MEAS_PRESET=TIME_PRESET
		MEAS_TIME=10.000
		MEAS_UNIT=GY
		PRESSURE=1013.25
		TEMPERATURE=20.00
		NORM_TEMPERATURE=20.00
		CORRECTION_FACTOR=1.0000
		CORRECTIONS=AIR_DENSITY_CORR;
		BEGIN_DATA
			-30.00		262.71E-03
			-15.00		284.67E-03
			15.00		268.24E-03
			30.00		256.66E-03
		END_DATA
	END_SCAN  5
	BEGIN_SCAN  6
		TASK_NAME=MODE_INTERVAL
		PROGRAM=BeamAdjust 1.2
		MEAS_DATE=07-Oct-2010 13:45:36
		LINAC=A4
		MODALITY=X
		INPLANE_AXIS_DIR=TARGET_GUN
		CROSSPLANE_AXIS_DIR=LEFT_RIGHT
		DEPTH_AXIS_DIR=UP_DOWN
		ENERGY=6.00
		SSD=950.00
		WEDGE=None
		FIELD_INPLANE=100.00
		FIELD_CROSSPLANE=100.00
		FIELD_TYPE=RECTANGULAR
		GANTRY=0.00
		GANTRY_UPRIGHT_POSITION=0
		GANTRY_ROTATION=CW
		COLL_ANGLE=90.00
		COLL_OFFSET_INPLANE=0.00
		COLL_OFFSET_CROSSPLANE=0.00
		SCAN_DEVICE=STARCHECK
		ELECTROMETER=2D_ARRAY_INTERFACE
		DETECTOR=STARCHECK
		SCAN_CURVETYPE=CROSSPLANE_PROFILE
		SCAN_DEPTH=0.00
		SCAN_OFFAXIS_INPLANE=100.00
		SCAN_ANGLE=0.00
		SCAN_DIAGONAL=NOT_DIAGONAL
		MEAS_PRESET=TIME_PRESET
		MEAS_TIME=10.000
		MEAS_UNIT=GY
		PRESSURE=1013.25
		TEMPERATURE=20.00
		NORM_TEMPERATURE=20.00
		CORRECTION_FACTOR=1.0000
		CORRECTIONS=AIR_DENSITY_CORR;
		BEGIN_DATA
			-60.00		9.8168E-03
			-30.00		14.601E-03
			30.00		14.737E-03
			60.00		9.7254E-03
		END_DATA
	END_SCAN  6
	BEGIN_SCAN  7
		TASK_NAME=MODE_INTERVAL
		PROGRAM=BeamAdjust 1.2
		MEAS_DATE=07-Oct-2010 13:45:36
		LINAC=A4
		MODALITY=X
		INPLANE_AXIS_DIR=TARGET_GUN
		CROSSPLANE_AXIS_DIR=LEFT_RIGHT
		DEPTH_AXIS_DIR=UP_DOWN
		ENERGY=6.00
		SSD=950.00
		WEDGE=None
		FIELD_INPLANE=100.00
		FIELD_CROSSPLANE=100.00
		FIELD_TYPE=RECTANGULAR
		GANTRY=0.00
		GANTRY_UPRIGHT_POSITION=0
		GANTRY_ROTATION=CW
		COLL_ANGLE=90.00
		COLL_OFFSET_INPLANE=0.00
		COLL_OFFSET_CROSSPLANE=0.00
		SCAN_DEVICE=STARCHECK
		ELECTROMETER=2D_ARRAY_INTERFACE
		DETECTOR=STARCHECK
		SCAN_CURVETYPE=CROSSPLANE_PROFILE
		SCAN_DEPTH=0.00
		SCAN_OFFAXIS_INPLANE=130.00
		SCAN_ANGLE=0.00
		SCAN_DIAGONAL=NOT_DIAGONAL
		MEAS_PRESET=TIME_PRESET
		MEAS_TIME=10.000
		MEAS_UNIT=GY
		PRESSURE=1013.25
		TEMPERATURE=20.00
		NORM_TEMPERATURE=20.00
		CORRECTION_FACTOR=1.0000
		CORRECTIONS=AIR_DENSITY_CORR;
		BEGIN_DATA
			-130.00		2.2166E-03
			-80.00		4.1121E-03
			-40.00		7.3495E-03
			40.00		7.3866E-03
			80.00		4.5445E-03
			130.00		2.4984E-03
		END_DATA
	END_SCAN  7
	BEGIN_SCAN  8
		TASK_NAME=MODE_INTERVAL
		PROGRAM=BeamAdjust 1.2
		MEAS_DATE=07-Oct-2010 13:45:36
		LINAC=A4
		MODALITY=X
		INPLANE_AXIS_DIR=TARGET_GUN
		CROSSPLANE_AXIS_DIR=LEFT_RIGHT
		DEPTH_AXIS_DIR=UP_DOWN
		ENERGY=6.00
		SSD=950.00
		WEDGE=None
		FIELD_INPLANE=100.00
		FIELD_CROSSPLANE=100.00
		FIELD_TYPE=RECTANGULAR
		GANTRY=0.00
		GANTRY_UPRIGHT_POSITION=0
		GANTRY_ROTATION=CW
		COLL_ANGLE=90.00
		COLL_OFFSET_INPLANE=0.00
		COLL_OFFSET_CROSSPLANE=0.00
		SCAN_DEVICE=STARCHECK
		ELECTROMETER=2D_ARRAY_INTERFACE
		DETECTOR=STARCHECK
		SCAN_CURVETYPE=INPLANE_PROFILE
		SCAN_DEPTH=0.00
		SCAN_OFFAXIS_CROSSPLANE=-130.00
		SCAN_ANGLE=0.00
		SCAN_DIAGONAL=NOT_DIAGONAL
		MEAS_PRESET=TIME_PRESET
		MEAS_TIME=10.000
		MEAS_UNIT=GY
		PRESSURE=1013.25
		TEMPERATURE=20.00
		NORM_TEMPERATURE=20.00
		CORRECTION_FACTOR=1.0000
		CORRECTIONS=AIR_DENSITY_CORR;
		BEGIN_DATA
			-130.00		2.2519E-03
			-125.00		2.5588E-03
			-120.00		3.0074E-03
			-115.00		3.1040E-03
			-110.00		2.9886E-03
			-105.00		3.4520E-03
			-100.00		3.7877E-03
			-95.00		4.1182E-03
			-90.00		4.2973E-03
			-85.00		4.2553E-03
			-80.00		4.1051E-03
			-75.00		4.8378E-03
			-70.00		4.4968E-03
			-65.00		4.9325E-03
			-60.00		4.9614E-03
			-55.00		5.3429E-03
			-50.00		4.2908E-03
			-45.00		4.4310E-03
			-40.00		4.6243E-03
			-35.00		5.0891E-03
			-30.00		5.0630E-03
			-25.00		4.9325E-03
			-20.00		4.9551E-03
			-15.00		4.8225E-03
			-10.00		5.0929E-03
			-5.00		6.1556E-03
			0.00		5.7494E-03
			5.00		6.2092E-03
			10.00		5.6507E-03
			15.00		5.0908E-03
			20.00		5.8816E-03
			25.00		5.0091E-03
			30.00		5.2377E-03
			35.00		5.2573E-03
			40.00		4.9276E-03
			45.00		4.8324E-03
			50.00		4.4940E-03
			55.00		4.5478E-03
			60.00		4.4440E-03
			65.00		4.4753E-03
			70.00		3.8393E-03
			75.00		4.1278E-03
			80.00		3.6221E-03
			85.00		3.3782E-03
			90.00		3.7491E-03
			95.00		3.3042E-03
			100.00		3.2969E-03
			105.00		2.5727E-03
			110.00		3.1077E-03
			115.00		2.2876E-03
			120.00		2.5646E-03
			125.00		2.7224E-03
			130.00		2.2166E-03
		END_DATA
	END_SCAN  8
	BEGIN_SCAN  9
		TASK_NAME=MODE_INTERVAL
		PROGRAM=BeamAdjust 1.2
		MEAS_DATE=07-Oct-2010 13:45:36
		LINAC=A4
		MODALITY=X
		INPLANE_AXIS_DIR=TARGET_GUN
		CROSSPLANE_AXIS_DIR=LEFT_RIGHT
		DEPTH_AXIS_DIR=UP_DOWN
		ENERGY=6.00
		SSD=950.00
		WEDGE=None
		FIELD_INPLANE=100.00
		FIELD_CROSSPLANE=100.00
		FIELD_TYPE=RECTANGULAR
		GANTRY=0.00
		GANTRY_UPRIGHT_POSITION=0
		GANTRY_ROTATION=CW
		COLL_ANGLE=90.00
		COLL_OFFSET_INPLANE=0.00
		COLL_OFFSET_CROSSPLANE=0.00
		SCAN_DEVICE=STARCHECK
		ELECTROMETER=2D_ARRAY_INTERFACE
		DETECTOR=STARCHECK
		SCAN_CURVETYPE=INPLANE_PROFILE
		SCAN_DEPTH=0.00
		SCAN_OFFAXIS_CROSSPLANE=-100.00
		SCAN_ANGLE=0.00
		SCAN_DIAGONAL=NOT_DIAGONAL
		MEAS_PRESET=TIME_PRESET
		MEAS_TIME=10.000
		MEAS_UNIT=GY
		PRESSURE=1013.25
		TEMPERATURE=20.00
		NORM_TEMPERATURE=20.00
		CORRECTION_FACTOR=1.0000
		CORRECTIONS=AIR_DENSITY_CORR;
		BEGIN_DATA
			-60.00		8.5638E-03
			-30.00		9.7113E-03
			30.00		9.6776E-03
			60.00		7.2743E-03
		END_DATA
	END_SCAN  9
	BEGIN_SCAN  10
		TASK_NAME=MODE_INTERVAL
		PROGRAM=BeamAdjust 1.2
		MEAS_DATE=07-Oct-2010 13:45:36
		LINAC=A4
		MODALITY=X
		INPLANE_AXIS_DIR=TARGET_GUN
		CROSSPLANE_AXIS_DIR=LEFT_RIGHT
		DEPTH_AXIS_DIR=UP_DOWN
		ENERGY=6.00
		SSD=950.00
		WEDGE=None
		FIELD_INPLANE=100.00
		FIELD_CROSSPLANE=100.00
		FIELD_TYPE=RECTANGULAR
		GANTRY=0.00
		GANTRY_UPRIGHT_POSITION=0
		GANTRY_ROTATION=CW
		COLL_ANGLE=90.00
		COLL_OFFSET_INPLANE=0.00
		COLL_OFFSET_CROSSPLANE=0.00
		SCAN_DEVICE=STARCHECK
		ELECTROMETER=2D_ARRAY_INTERFACE
		DETECTOR=STARCHECK
		SCAN_CURVETYPE=INPLANE_PROFILE
		SCAN_DEPTH=0.00
		SCAN_OFFAXIS_CROSSPLANE=-50.00
		SCAN_ANGLE=0.00
		SCAN_DIAGONAL=NOT_DIAGONAL
		MEAS_PRESET=TIME_PRESET
		MEAS_TIME=10.000
		MEAS_UNIT=GY
		PRESSURE=1013.25
		TEMPERATURE=20.00
		NORM_TEMPERATURE=20.00
		CORRECTION_FACTOR=1.0000
		CORRECTIONS=AIR_DENSITY_CORR;
		BEGIN_DATA
			-30.00		84.627E-03
			-15.00		86.931E-03
			15.00		84.900E-03
			30.00		78.937E-03
		END_DATA
	END_SCAN  10
	BEGIN_SCAN  11
		TASK_NAME=MODE_INTERVAL
		PROGRAM=BeamAdjust 1.2
		MEAS_DATE=07-Oct-2010 13:45:36
		LINAC=A4
		MODALITY=X
		INPLANE_AXIS_DIR=TARGET_GUN
		CROSSPLANE_AXIS_DIR=LEFT_RIGHT
		DEPTH_AXIS_DIR=UP_DOWN
		ENERGY=6.00
		SSD=950.00
		WEDGE=None
		FIELD_INPLANE=100.00
		FIELD_CROSSPLANE=100.00
		FIELD_TYPE=RECTANGULAR
		GANTRY=0.00
		GANTRY_UPRIGHT_POSITION=0
		GANTRY_ROTATION=CW
		COLL_ANGLE=90.00
		COLL_OFFSET_INPLANE=0.00
		COLL_OFFSET_CROSSPLANE=0.00
		SCAN_DEVICE=STARCHECK
		ELECTROMETER=2D_ARRAY_INTERFACE
		DETECTOR=STARCHECK
		SCAN_CURVETYPE=INPLANE_PROFILE
		SCAN_DEPTH=0.00
		SCAN_OFFAXIS_CROSSPLANE=0.00
		SCAN_ANGLE=0.00
		SCAN_DIAGONAL=NOT_DIAGONAL
		MEAS_PRESET=TIME_PRESET
		MEAS_TIME=10.000
		MEAS_UNIT=GY
		PRESSURE=1013.25
		TEMPERATURE=20.00
		NORM_TEMPERATURE=20.00
		CORRECTION_FACTOR=1.0000
		CORRECTIONS=AIR_DENSITY_CORR;
		BEGIN_DATA
			-126.00		9.5488E-03
			-123.00		9.0049E-03
			-120.00		10.573E-03
			-117.00		12.192E-03
			-114.00		11.787E-03
			-111.00		12.598E-03
			-108.00		14.076E-03
			-105.00		14.876E-03
			-102.00		16.395E-03
			-99.00		16.661E-03
			-96.00		18.208E-03
			-93.00		20.450E-03
			-90.00		21.737E-03
			-87.00		23.746E-03
			-84.00		25.782E-03
			-81.00		28.405E-03
			-78.00		30.518E-03
			-75.00		33.572E-03
			-72.00		36.857E-03
			-69.00		40.534E-03
			-66.00		46.176E-03
			-63.00		52.589E-03
			-60.00		62.922E-03
			-57.00		82.318E-03
			-54.00		133.28E-03
			-51.00		307.34E-03
			-48.00		556.05E-03
			-45.00		622.10E-03
			-42.00		641.74E-03
			-39.00		651.08E-03
			-36.00		655.95E-03
			-33.00		660.13E-03
			-30.00		663.58E-03
			-27.00		664.77E-03
			-24.00		663.87E-03
			-21.00		662.78E-03
			-18.00		669.52E-03
			-15.00		667.85E-03
			-12.00		669.76E-03
			-9.00		669.78E-03
			-6.00		667.43E-03
			0.00		666.76E-03
			6.00		670.66E-03
			9.00		669.89E-03
			12.00		668.50E-03
			15.00		666.10E-03
			18.00		662.58E-03
			21.00		661.94E-03
			24.00		658.73E-03
			27.00		660.23E-03
			30.00		656.19E-03
			33.00		654.05E-03
			36.00		651.57E-03
			39.00		640.52E-03
			42.00		628.61E-03
			45.00		595.41E-03
			48.00		432.90E-03
			51.00		189.40E-03
			54.00		98.926E-03
			57.00		70.352E-03
			60.00		57.011E-03
			63.00		48.969E-03
			66.00		43.783E-03
			69.00		38.952E-03
			72.00		35.261E-03
			75.00		31.723E-03
			78.00		28.699E-03
			81.00		26.288E-03
			84.00		24.620E-03
			87.00		22.655E-03
			90.00		21.267E-03
			93.00		19.691E-03
			96.00		18.363E-03
			99.00		17.508E-03
			102.00		15.178E-03
			105.00		14.163E-03
			108.00		13.690E-03
			111.00		12.423E-03
			114.00		12.084E-03
			117.00		11.055E-03
			120.00		10.636E-03
			123.00		9.8025E-03
			126.00		9.0832E-03
		END_DATA
	END_SCAN  11
	BEGIN_SCAN  12
		TASK_NAME=MODE_INTERVAL
		PROGRAM=BeamAdjust 1.2
		MEAS_DATE=07-Oct-2010 13:45:36
		LINAC=A4
		MODALITY=X
		INPLANE_AXIS_DIR=TARGET_GUN
		CROSSPLANE_AXIS_DIR=LEFT_RIGHT
		DEPTH_AXIS_DIR=UP_DOWN
		ENERGY=6.00
		SSD=950.00
		WEDGE=None
		FIELD_INPLANE=100.00
		FIELD_CROSSPLANE=100.00
		FIELD_TYPE=RECTANGULAR
		GANTRY=0.00
		GANTRY_UPRIGHT_POSITION=0
		GANTRY_ROTATION=CW
		COLL_ANGLE=90.00
		COLL_OFFSET_INPLANE=0.00
		COLL_OFFSET_CROSSPLANE=0.00
		SCAN_DEVICE=STARCHECK
		ELECTROMETER=2D_ARRAY_INTERFACE
		DETECTOR=STARCHECK
		SCAN_CURVETYPE=INPLANE_PROFILE
		SCAN_DEPTH=0.00
		SCAN_OFFAXIS_CROSSPLANE=50.00
		SCAN_ANGLE=0.00
		SCAN_DIAGONAL=NOT_DIAGONAL
		MEAS_PRESET=TIME_PRESET
		MEAS_TIME=10.000
		MEAS_UNIT=GY
		PRESSURE=1013.25
		TEMPERATURE=20.00
		NORM_TEMPERATURE=20.00
		CORRECTION_FACTOR=1.0000
		CORRECTIONS=AIR_DENSITY_CORR;
		BEGIN_DATA
			-30.00		623.97E-03
			-15.00		628.82E-03
			15.00		626.46E-03
			30.00		624.03E-03
		END_DATA
	END_SCAN  12
	BEGIN_SCAN  13
		TASK_NAME=MODE_INTERVAL
		PROGRAM=BeamAdjust 1.2
		MEAS_DATE=07-Oct-2010 13:45:36
		LINAC=A4
		MODALITY=X
		INPLANE_AXIS_DIR=TARGET_GUN
		CROSSPLANE_AXIS_DIR=LEFT_RIGHT
		DEPTH_AXIS_DIR=UP_DOWN
		ENERGY=6.00
		SSD=950.00
		WEDGE=None
		FIELD_INPLANE=100.00
		FIELD_CROSSPLANE=100.00
		FIELD_TYPE=RECTANGULAR
		GANTRY=0.00
		GANTRY_UPRIGHT_POSITION=0
		GANTRY_ROTATION=CW
		COLL_ANGLE=90.00
		COLL_OFFSET_INPLANE=0.00
		COLL_OFFSET_CROSSPLANE=0.00
		SCAN_DEVICE=STARCHECK
		ELECTROMETER=2D_ARRAY_INTERFACE
		DETECTOR=STARCHECK
		SCAN_CURVETYPE=INPLANE_PROFILE
		SCAN_DEPTH=0.00
		SCAN_OFFAXIS_CROSSPLANE=100.00
		SCAN_ANGLE=0.00
		SCAN_DIAGONAL=NOT_DIAGONAL
		MEAS_PRESET=TIME_PRESET
		MEAS_TIME=10.000
		MEAS_UNIT=GY
		PRESSURE=1013.25
		TEMPERATURE=20.00
		NORM_TEMPERATURE=20.00
		CORRECTION_FACTOR=1.0000
		CORRECTIONS=AIR_DENSITY_CORR;
		BEGIN_DATA
			-60.00		9.1369E-03
			-30.00		11.931E-03
			30.00		11.625E-03
			60.00		8.4587E-03
		END_DATA
	END_SCAN  13
	BEGIN_SCAN  14
		TASK_NAME=MODE_INTERVAL
		PROGRAM=BeamAdjust 1.2
		MEAS_DATE=07-Oct-2010 13:45:36
		LINAC=A4
		MODALITY=X
		INPLANE_AXIS_DIR=TARGET_GUN
		CROSSPLANE_AXIS_DIR=LEFT_RIGHT
		DEPTH_AXIS_DIR=UP_DOWN
		ENERGY=6.00
		SSD=950.00
		WEDGE=None
		FIELD_INPLANE=100.00
		FIELD_CROSSPLANE=100.00
		FIELD_TYPE=RECTANGULAR
		GANTRY=0.00
		GANTRY_UPRIGHT_POSITION=0
		GANTRY_ROTATION=CW
		COLL_ANGLE=90.00
		COLL_OFFSET_INPLANE=0.00
		COLL_OFFSET_CROSSPLANE=0.00
		SCAN_DEVICE=STARCHECK
		ELECTROMETER=2D_ARRAY_INTERFACE
		DETECTOR=STARCHECK
		SCAN_CURVETYPE=INPLANE_PROFILE
		SCAN_DEPTH=0.00
		SCAN_OFFAXIS_CROSSPLANE=130.00
		SCAN_ANGLE=0.00
		SCAN_DIAGONAL=NOT_DIAGONAL
		MEAS_PRESET=TIME_PRESET
		MEAS_TIME=10.000
		MEAS_UNIT=GY
		PRESSURE=1013.25
		TEMPERATURE=20.00
		NORM_TEMPERATURE=20.00
		CORRECTION_FACTOR=1.0000
		CORRECTIONS=AIR_DENSITY_CORR;
		BEGIN_DATA
			-130.00		2.9862E-03
			-125.00		2.9277E-03
			-120.00		2.5776E-03
			-115.00		2.9034E-03
			-110.00		3.1381E-03
			-105.00		3.3284E-03
			-100.00		3.6940E-03
			-95.00		3.5632E-03
			-90.00		3.2389E-03
			-85.00		4.2824E-03
			-80.00		4.1031E-03
			-75.00		4.4139E-03
			-70.00		4.6603E-03
			-65.00		4.6624E-03
			-60.00		5.5047E-03
			-55.00		5.0159E-03
			-50.00		4.9929E-03
			-45.00		5.5148E-03
			-40.00		5.6958E-03
			-35.00		6.0094E-03
			-30.00		6.1887E-03
			-25.00		5.6349E-03
			-20.00		5.9294E-03
			-15.00		6.0367E-03
			-10.00		5.6523E-03
			-5.00		6.2717E-03
			0.00		6.9444E-03
			5.00		6.3589E-03
			10.00		7.0732E-03
			15.00		6.0106E-03
			20.00		6.2836E-03
			25.00		6.1686E-03
			30.00		5.2613E-03
			35.00		5.7423E-03
			40.00		5.7696E-03
			45.00		5.6189E-03
			50.00		5.1495E-03
			55.00		5.5225E-03
			60.00		5.0841E-03
			65.00		4.5915E-03
			70.00		4.3277E-03
			75.00		4.4136E-03
			80.00		4.8396E-03
			85.00		3.9915E-03
			90.00		3.8231E-03
			95.00		3.5463E-03
			100.00		4.2254E-03
			105.00		2.8143E-03
			110.00		3.0226E-03
			115.00		2.6754E-03
			120.00		2.7831E-03
			125.00		2.6134E-03
			130.00		2.4984E-03
		END_DATA
	END_SCAN  14
	BEGIN_SCAN  15
		TASK_NAME=MODE_INTERVAL
		PROGRAM=BeamAdjust 1.2
		MEAS_DATE=07-Oct-2010 13:45:36
		LINAC=A4
		MODALITY=X
		INPLANE_AXIS_DIR=TARGET_GUN
		CROSSPLANE_AXIS_DIR=LEFT_RIGHT
		DEPTH_AXIS_DIR=UP_DOWN
		ENERGY=6.00
		SSD=950.00
		WEDGE=None
		FIELD_INPLANE=100.00
		FIELD_CROSSPLANE=100.00
		FIELD_TYPE=RECTANGULAR
		GANTRY=0.00
		GANTRY_UPRIGHT_POSITION=0
		GANTRY_ROTATION=CW
		COLL_ANGLE=90.00
		COLL_OFFSET_INPLANE=0.00
		COLL_OFFSET_CROSSPLANE=0.00
		SCAN_DEVICE=STARCHECK
		ELECTROMETER=2D_ARRAY_INTERFACE
		DETECTOR=STARCHECK
		SCAN_CURVETYPE=INPLANE_PROFILE
		SCAN_DEPTH=0.00
		SCAN_OFFAXIS_CROSSPLANE=0.00
		SCAN_ANGLE=0.00
		SCAN_DIAGONAL=FIRST_DIAGONAL
		MEAS_PRESET=TIME_PRESET
		MEAS_TIME=10.000
		MEAS_UNIT=GY
		PRESSURE=1013.25
		TEMPERATURE=20.00
		NORM_TEMPERATURE=20.00
		CORRECTION_FACTOR=1.0000
		CORRECTIONS=AIR_DENSITY_CORR;
		BEGIN_DATA
			-172.40		2.8242E-03
			-169.40		2.6028E-03
			-166.40		3.7917E-03
			-163.40		3.7211E-03
			-160.40		4.0698E-03
			-157.40		3.5984E-03
			-154.40		3.7947E-03
			-151.40		4.0566E-03
			-148.40		4.4356E-03
			-145.40		4.8918E-03
			-142.40		5.4223E-03
			-139.40		5.8771E-03
			-136.40		5.5314E-03
			-133.40		6.0957E-03
			-130.40		6.8438E-03
			-127.40		7.3007E-03
			-124.40		7.6911E-03
			-121.40		8.6103E-03
			-118.40		9.3782E-03
			-115.40		9.7426E-03
			-112.40		10.081E-03
			-109.40		11.482E-03
			-106.40		12.693E-03
			-103.40		13.045E-03
			-100.40		14.082E-03
			-97.40		16.218E-03
			-94.40		17.871E-03
			-91.40		19.216E-03
			-88.40		21.919E-03
			-85.40		24.154E-03
			-82.40		27.263E-03
			-79.40		31.172E-03
			-76.40		35.665E-03
			-73.40		46.571E-03
			-70.40		71.109E-03
			-67.40		160.55E-03
			-64.40		330.55E-03
			-61.40		485.83E-03
			-58.40		579.18E-03
			-55.40		615.16E-03
			-52.40		631.41E-03
			-49.40		640.13E-03
			-46.40		644.81E-03
			-43.40		648.28E-03
			-40.40		652.18E-03
			-37.40		657.42E-03
			-34.40		657.35E-03
			-31.40		659.76E-03
			-28.40		658.54E-03
			-25.40		661.84E-03
			-22.40		661.92E-03
			-19.40		662.10E-03
			-16.40		665.09E-03
			-13.40		668.96E-03
			0.00		666.76E-03
			13.40		671.94E-03
			16.40		667.25E-03
			19.40		666.33E-03
			22.40		665.03E-03
			25.40		664.22E-03
			28.40		663.43E-03
			31.40		661.04E-03
			34.40		657.96E-03
			37.40		660.74E-03
			40.40		658.39E-03
			43.40		655.86E-03
			46.40		654.39E-03
			49.40		648.77E-03
			52.40		644.55E-03
			55.40		634.87E-03
			58.40		624.03E-03
			61.40		599.06E-03
			64.40		529.72E-03
			67.40		402.27E-03
			70.40		245.92E-03
			73.40		122.84E-03
			76.40		64.528E-03
			79.40		45.093E-03
			82.40		36.319E-03
			85.40		30.941E-03
			88.40		27.683E-03
			91.40		23.905E-03
			94.40		21.742E-03
			97.40		19.535E-03
			100.40		17.525E-03
			103.40		16.570E-03
			106.40		15.169E-03
			109.40		13.999E-03
			112.40		12.190E-03
			115.40		11.144E-03
			118.40		10.085E-03
			121.40		9.4910E-03
			124.40		8.7816E-03
			127.40		8.4938E-03
			130.40		8.5418E-03
			133.40		6.7928E-03
			136.40		5.8885E-03
			139.40		5.9877E-03
			142.40		5.8500E-03
			145.40		5.5975E-03
			148.40		5.8325E-03
			151.40		5.0961E-03
			154.40		4.9470E-03
			157.40		4.3448E-03
			160.40		3.3938E-03
			163.40		3.8436E-03
			166.40		3.5073E-03
			169.40		3.3502E-03
			172.40		3.7025E-03
		END_DATA
	END_SCAN  15
	BEGIN_SCAN  16
		TASK_NAME=MODE_INTERVAL
		PROGRAM=BeamAdjust 1.2
		MEAS_DATE=07-Oct-2010 13:45:36
		LINAC=A4
		MODALITY=X
		INPLANE_AXIS_DIR=GUN_TARGET
		CROSSPLANE_AXIS_DIR=LEFT_RIGHT
		DEPTH_AXIS_DIR=UP_DOWN
		ENERGY=6.00
		SSD=950.00
		WEDGE=None
		FIELD_INPLANE=100.00
		FIELD_CROSSPLANE=100.00
		FIELD_TYPE=RECTANGULAR
		GANTRY=0.00
		GANTRY_UPRIGHT_POSITION=0
		GANTRY_ROTATION=CW
		COLL_ANGLE=90.00
		COLL_OFFSET_INPLANE=0.00
		COLL_OFFSET_CROSSPLANE=0.00
		SCAN_DEVICE=STARCHECK
		ELECTROMETER=2D_ARRAY_INTERFACE
		DETECTOR=STARCHECK
		SCAN_CURVETYPE=INPLANE_PROFILE
		SCAN_DEPTH=0.00
		SCAN_OFFAXIS_CROSSPLANE=0.00
		SCAN_ANGLE=0.00
		SCAN_DIAGONAL=SECOND_DIAGONAL
		MEAS_PRESET=TIME_PRESET
		MEAS_TIME=10.000
		MEAS_UNIT=GY
		PRESSURE=1013.25
		TEMPERATURE=20.00
		NORM_TEMPERATURE=20.00
		CORRECTION_FACTOR=1.0000
		CORRECTIONS=AIR_DENSITY_CORR;
		BEGIN_DATA
			-172.40		3.1016E-03
			-169.40		2.8266E-03
			-166.40		3.5492E-03
			-163.40		3.6669E-03
			-160.40		3.6966E-03
			-157.40		4.1277E-03
			-154.40		4.7996E-03
			-151.40		4.8388E-03
			-148.40		4.6809E-03
			-145.40		5.9980E-03
			-142.40		6.1933E-03
			-139.40		6.2115E-03
			-136.40		5.9719E-03
			-133.40		7.2712E-03
			-130.40		7.4737E-03
			-127.40		8.3209E-03
			-124.40		9.3739E-03
			-121.40		10.154E-03
			-118.40		10.776E-03
			-115.40		10.984E-03
			-112.40		12.106E-03
			-109.40		13.569E-03
			-106.40		14.964E-03
			-103.40		16.993E-03
			-100.40		18.414E-03
			-97.40		20.117E-03
			-94.40		21.355E-03
			-91.40		24.695E-03
			-88.40		27.282E-03
			-85.40		32.079E-03
			-82.40		38.132E-03
			-79.40		50.117E-03
			-76.40		80.958E-03
			-73.40		187.33E-03
			-70.40		366.27E-03
			-67.40		514.68E-03
			-64.40		592.75E-03
			-61.40		623.74E-03
			-58.40		638.89E-03
			-55.40		645.24E-03
			-52.40		653.87E-03
			-49.40		656.99E-03
			-46.40		659.22E-03
			-43.40		661.76E-03
			-40.40		663.53E-03
			-37.40		666.57E-03
			-34.40		665.49E-03
			-31.40		666.28E-03
			-28.40		668.33E-03
			-25.40		666.77E-03
			-22.40		665.52E-03
			-19.40		670.09E-03
			-16.40		670.79E-03
			-13.40		672.24E-03
			0.00		666.76E-03
			13.40		668.26E-03
			16.40		665.82E-03
			19.40		662.98E-03
			22.40		660.54E-03
			25.40		659.98E-03
			28.40		658.43E-03
			31.40		656.18E-03
			34.40		653.08E-03
			37.40		651.95E-03
			40.40		650.20E-03
			43.40		647.06E-03
			46.40		644.03E-03
			49.40		637.01E-03
			52.40		624.10E-03
			55.40		604.89E-03
			58.40		563.84E-03
			61.40		449.69E-03
			64.40		268.05E-03
			67.40		111.69E-03
			70.40		58.424E-03
			73.40		41.701E-03
			76.40		34.025E-03
			79.40		28.858E-03
			82.40		26.060E-03
			85.40		23.479E-03
			88.40		21.525E-03
			91.40		19.172E-03
			94.40		17.335E-03
			97.40		16.020E-03
			100.40		13.769E-03
			103.40		12.539E-03
			106.40		12.223E-03
			109.40		10.975E-03
			112.40		10.086E-03
			115.40		9.3791E-03
			118.40		8.9436E-03
			121.40		8.0567E-03
			124.40		7.2106E-03
			127.40		7.0364E-03
			130.40		7.1681E-03
			133.40		6.2223E-03
			136.40		5.4361E-03
			139.40		5.9491E-03
			142.40		5.3412E-03
			145.40		5.1477E-03
			148.40		4.6652E-03
			151.40		4.2530E-03
			154.40		4.0920E-03
			157.40		3.7992E-03
			160.40		3.6806E-03
			163.40		3.7938E-03
			166.40		3.7259E-03
			169.40		3.1702E-03
			172.40		2.7267E-03
		END_DATA
	END_SCAN  16
END_SCAN_DATA
