BEGIN_SCAN_DATA
	FORMAT=CC-Export V1.9                  
	FILE_CREATION_DATE=07-Oct-2010 13:45:04
	LAST_MODIFIED=07-Oct-2010 13:45:04
	BEGIN_SCAN  1
		TASK_NAME=MODE_INTERVAL
		PROGRAM=BeamAdjust 1.2
		MEAS_DATE=07-Oct-2010 13:45:04
		LINAC=A4
		MODALITY=X
		INPLANE_AXIS_DIR=TARGET_GUN
		CROSSPLANE_AXIS_DIR=LEFT_RIGHT
		DEPTH_AXIS_DIR=UP_DOWN
		ENERGY=6.00
		SSD=950.00
		WEDGE=None
		FIELD_INPLANE=100.00
		FIELD_CROSSPLANE=100.00
		FIELD_TYPE=RECTANGULAR
		GANTRY=0.00
		GANTRY_UPRIGHT_POSITION=0
		GANTRY_ROTATION=CW
		COLL_ANGLE=90.00
		COLL_OFFSET_INPLANE=0.00
		COLL_OFFSET_CROSSPLANE=0.00
		SCAN_DEVICE=STARCHECK
		ELECTROMETER=2D_ARRAY_INTERFACE
		DETECTOR=STARCHECK
		SCAN_CURVETYPE=CROSSPLANE_PROFILE
		SCAN_DEPTH=0.00
		SCAN_OFFAXIS_INPLANE=-130.00
		SCAN_ANGLE=0.00
		SCAN_DIAGONAL=NOT_DIAGONAL
		MEAS_PRESET=TIME_PRESET
		MEAS_TIME=10.000
		MEAS_UNIT=GY
		PRESSURE=1013.25
		TEMPERATURE=20.00
		NORM_TEMPERATURE=20.00
		CORRECTION_FACTOR=1.0000
		CORRECTIONS=AIR_DENSITY_CORR;
		BEGIN_DATA
			-130.00		2.4599E-03
			-80.00		4.3883E-03
			-40.00		6.8366E-03
			40.00		7.3558E-03
			80.00		4.4363E-03
			130.00		2.2202E-03
		END_DATA
	END_SCAN  1
	BEGIN_SCAN  2
		TASK_NAME=MODE_INTERVAL
		PROGRAM=BeamAdjust 1.2
		MEAS_DATE=07-Oct-2010 13:45:04
		LINAC=A4
		MODALITY=X
		INPLANE_AXIS_DIR=TARGET_GUN
		CROSSPLANE_AXIS_DIR=LEFT_RIGHT
		DEPTH_AXIS_DIR=UP_DOWN
		ENERGY=6.00
		SSD=950.00
		WEDGE=None
		FIELD_INPLANE=100.00
		FIELD_CROSSPLANE=100.00
		FIELD_TYPE=RECTANGULAR
		GANTRY=0.00
		GANTRY_UPRIGHT_POSITION=0
		GANTRY_ROTATION=CW
		COLL_ANGLE=90.00
		COLL_OFFSET_INPLANE=0.00
		COLL_OFFSET_CROSSPLANE=0.00
		SCAN_DEVICE=STARCHECK
		ELECTROMETER=2D_ARRAY_INTERFACE
		DETECTOR=STARCHECK
		SCAN_CURVETYPE=CROSSPLANE_PROFILE
		SCAN_DEPTH=0.00
		SCAN_OFFAXIS_INPLANE=-100.00
		SCAN_ANGLE=0.00
		SCAN_DIAGONAL=NOT_DIAGONAL
		MEAS_PRESET=TIME_PRESET
		MEAS_TIME=10.000
		MEAS_UNIT=GY
		PRESSURE=1013.25
		TEMPERATURE=20.00
		NORM_TEMPERATURE=20.00
		CORRECTION_FACTOR=1.0000
		CORRECTIONS=AIR_DENSITY_CORR;
		BEGIN_DATA
			-60.00		9.9248E-03
			-30.00		14.052E-03
			30.00		15.273E-03
			60.00		11.175E-03
		END_DATA
	END_SCAN  2
	BEGIN_SCAN  3
		TASK_NAME=MODE_INTERVAL
		PROGRAM=BeamAdjust 1.2
		MEAS_DATE=07-Oct-2010 13:45:04
		LINAC=A4
		MODALITY=X
		INPLANE_AXIS_DIR=TARGET_GUN
		CROSSPLANE_AXIS_DIR=LEFT_RIGHT
		DEPTH_AXIS_DIR=UP_DOWN
		ENERGY=6.00
		SSD=950.00
		WEDGE=None
		FIELD_INPLANE=100.00
		FIELD_CROSSPLANE=100.00
		FIELD_TYPE=RECTANGULAR
		GANTRY=0.00
		GANTRY_UPRIGHT_POSITION=0
		GANTRY_ROTATION=CW
		COLL_ANGLE=90.00
		COLL_OFFSET_INPLANE=0.00
		COLL_OFFSET_CROSSPLANE=0.00
		SCAN_DEVICE=STARCHECK
		ELECTROMETER=2D_ARRAY_INTERFACE
		DETECTOR=STARCHECK
		SCAN_CURVETYPE=CROSSPLANE_PROFILE
		SCAN_DEPTH=0.00
		SCAN_OFFAXIS_INPLANE=-50.00
		SCAN_ANGLE=0.00
		SCAN_DIAGONAL=NOT_DIAGONAL
		MEAS_PRESET=TIME_PRESET
		MEAS_TIME=10.000
		MEAS_UNIT=GY
		PRESSURE=1013.25
		TEMPERATURE=20.00
		NORM_TEMPERATURE=20.00
		CORRECTION_FACTOR=1.0000
		CORRECTIONS=AIR_DENSITY_CORR;
		BEGIN_DATA
			-30.00		385.67E-03
			-15.00		377.42E-03
			15.00		393.06E-03
			30.00		392.87E-03
		END_DATA
	END_SCAN  3
	BEGIN_SCAN  4
		TASK_NAME=MODE_INTERVAL
		PROGRAM=BeamAdjust 1.2
		MEAS_DATE=07-Oct-2010 13:45:04
		LINAC=A4
		MODALITY=X
		INPLANE_AXIS_DIR=TARGET_GUN
		CROSSPLANE_AXIS_DIR=LEFT_RIGHT
		DEPTH_AXIS_DIR=UP_DOWN
		ENERGY=6.00
		SSD=950.00
		WEDGE=None
		FIELD_INPLANE=100.00
		FIELD_CROSSPLANE=100.00
		FIELD_TYPE=RECTANGULAR
		GANTRY=0.00
		GANTRY_UPRIGHT_POSITION=0
		GANTRY_ROTATION=CW
		COLL_ANGLE=90.00
		COLL_OFFSET_INPLANE=0.00
		COLL_OFFSET_CROSSPLANE=0.00
		SCAN_DEVICE=STARCHECK
		ELECTROMETER=2D_ARRAY_INTERFACE
		DETECTOR=STARCHECK
		SCAN_CURVETYPE=CROSSPLANE_PROFILE
		SCAN_DEPTH=0.00
		SCAN_OFFAXIS_INPLANE=0.00
		SCAN_ANGLE=0.00
		SCAN_DIAGONAL=NOT_DIAGONAL
		MEAS_PRESET=TIME_PRESET
		MEAS_TIME=10.000
		MEAS_UNIT=GY
		PRESSURE=1013.25
		TEMPERATURE=20.00
		NORM_TEMPERATURE=20.00
		CORRECTION_FACTOR=1.0000
		CORRECTIONS=AIR_DENSITY_CORR;
		BEGIN_DATA
			-126.00		6.2275E-03
			-123.00		7.5712E-03
			-120.00		7.5151E-03
			-117.00		7.8499E-03
			-114.00		8.2239E-03
			-111.00		8.6923E-03
			-108.00		9.4342E-03
			-105.00		10.065E-03
			-102.00		10.635E-03
			-99.00		11.648E-03
			-96.00		12.910E-03
			-93.00		13.867E-03
			-90.00		14.702E-03
			-87.00		16.153E-03
			-84.00		17.690E-03
			-81.00		19.453E-03
			-78.00		20.751E-03
			-75.00		22.819E-03
			-72.00		25.015E-03
			-69.00		28.448E-03
			-66.00		31.902E-03
			-63.00		35.292E-03
			-60.00		40.702E-03
			-57.00		47.700E-03
			-54.00		58.599E-03
			-51.00		80.649E-03
			-48.00		138.36E-03
			-45.00		376.58E-03
			-42.00		580.73E-03
			-39.00		627.91E-03
			-36.00		644.72E-03
			-33.00		649.49E-03
			-30.00		653.59E-03
			-27.00		657.49E-03
			-24.00		660.48E-03
			-21.00		660.87E-03
			-18.00		666.41E-03
			-15.00		666.01E-03
			-12.00		666.19E-03
			-9.00		670.77E-03
			-6.00		670.96E-03
			0.00		668.92E-03
			6.00		670.87E-03
			9.00		670.07E-03
			12.00		669.37E-03
			15.00		669.92E-03
			18.00		669.91E-03
			21.00		667.64E-03
			24.00		663.68E-03
			27.00		667.91E-03
			30.00		666.61E-03
			33.00		665.97E-03
			36.00		663.93E-03
			39.00		661.78E-03
			42.00		657.26E-03
			45.00		650.00E-03
			48.00		636.05E-03
			51.00		601.68E-03
			54.00		458.69E-03
			57.00		170.91E-03
			60.00		88.715E-03
			63.00		63.357E-03
			66.00		50.505E-03
			69.00		42.104E-03
			72.00		36.777E-03
			75.00		32.577E-03
			78.00		28.723E-03
			81.00		26.144E-03
			84.00		23.462E-03
			87.00		20.900E-03
			90.00		19.902E-03
			93.00		17.855E-03
			96.00		16.041E-03
			99.00		14.984E-03
			102.00		13.437E-03
			105.00		12.618E-03
			108.00		12.081E-03
			111.00		10.111E-03
			114.00		10.043E-03
			117.00		9.2470E-03
			120.00		7.9793E-03
			123.00		8.0041E-03
			126.00		7.7397E-03
		END_DATA
	END_SCAN  4
	BEGIN_SCAN  5
		TASK_NAME=MODE_INTERVAL
		PROGRAM=BeamAdjust 1.2
		MEAS_DATE=07-Oct-2010 13:45:04
		LINAC=A4
		MODALITY=X
		INPLANE_AXIS_DIR=TARGET_GUN
		CROSSPLANE_AXIS_DIR=LEFT_RIGHT
		DEPTH_AXIS_DIR=UP_DOWN
		ENERGY=6.00
		SSD=950.00
		WEDGE=None
		FIELD_INPLANE=100.00
		FIELD_CROSSPLANE=100.00
		FIELD_TYPE=RECTANGULAR
		GANTRY=0.00
		GANTRY_UPRIGHT_POSITION=0
		GANTRY_ROTATION=CW
		COLL_ANGLE=90.00
		COLL_OFFSET_INPLANE=0.00
		COLL_OFFSET_CROSSPLANE=0.00
		SCAN_DEVICE=STARCHECK
		ELECTROMETER=2D_ARRAY_INTERFACE
		DETECTOR=STARCHECK
		SCAN_CURVETYPE=CROSSPLANE_PROFILE
		SCAN_DEPTH=0.00
		SCAN_OFFAXIS_INPLANE=50.00
		SCAN_ANGLE=0.00
		SCAN_DIAGONAL=NOT_DIAGONAL
		MEAS_PRESET=TIME_PRESET
		MEAS_TIME=10.000
		MEAS_UNIT=GY
		PRESSURE=1013.25
		TEMPERATURE=20.00
		NORM_TEMPERATURE=20.00
		CORRECTION_FACTOR=1.0000
		CORRECTIONS=AIR_DENSITY_CORR;
		BEGIN_DATA
			-30.00		261.79E-03
			-15.00		283.17E-03
			15.00		268.58E-03
			30.00		255.27E-03
		END_DATA
	END_SCAN  5
	BEGIN_SCAN  6
		TASK_NAME=MODE_INTERVAL
		PROGRAM=BeamAdjust 1.2
		MEAS_DATE=07-Oct-2010 13:45:04
		LINAC=A4
		MODALITY=X
		INPLANE_AXIS_DIR=TARGET_GUN
		CROSSPLANE_AXIS_DIR=LEFT_RIGHT
		DEPTH_AXIS_DIR=UP_DOWN
		ENERGY=6.00
		SSD=950.00
		WEDGE=None
		FIELD_INPLANE=100.00
		FIELD_CROSSPLANE=100.00
		FIELD_TYPE=RECTANGULAR
		GANTRY=0.00
		GANTRY_UPRIGHT_POSITION=0
		GANTRY_ROTATION=CW
		COLL_ANGLE=90.00
		COLL_OFFSET_INPLANE=0.00
		COLL_OFFSET_CROSSPLANE=0.00
		SCAN_DEVICE=STARCHECK
		ELECTROMETER=2D_ARRAY_INTERFACE
		DETECTOR=STARCHECK
		SCAN_CURVETYPE=CROSSPLANE_PROFILE
		SCAN_DEPTH=0.00
		SCAN_OFFAXIS_INPLANE=100.00
		SCAN_ANGLE=0.00
		SCAN_DIAGONAL=NOT_DIAGONAL
		MEAS_PRESET=TIME_PRESET
		MEAS_TIME=10.000
		MEAS_UNIT=GY
		PRESSURE=1013.25
		TEMPERATURE=20.00
		NORM_TEMPERATURE=20.00
		CORRECTION_FACTOR=1.0000
		CORRECTIONS=AIR_DENSITY_CORR;
		BEGIN_DATA
			-60.00		9.4901E-03
			-30.00		14.315E-03
			30.00		14.986E-03
			60.00		10.047E-03
		END_DATA
	END_SCAN  6
	BEGIN_SCAN  7
		TASK_NAME=MODE_INTERVAL
		PROGRAM=BeamAdjust 1.2
		MEAS_DATE=07-Oct-2010 13:45:04
		LINAC=A4
		MODALITY=X
		INPLANE_AXIS_DIR=TARGET_GUN
		CROSSPLANE_AXIS_DIR=LEFT_RIGHT
		DEPTH_AXIS_DIR=UP_DOWN
		ENERGY=6.00
		SSD=950.00
		WEDGE=None
		FIELD_INPLANE=100.00
		FIELD_CROSSPLANE=100.00
		FIELD_TYPE=RECTANGULAR
		GANTRY=0.00
		GANTRY_UPRIGHT_POSITION=0
		GANTRY_ROTATION=CW
		COLL_ANGLE=90.00
		COLL_OFFSET_INPLANE=0.00
		COLL_OFFSET_CROSSPLANE=0.00
		SCAN_DEVICE=STARCHECK
		ELECTROMETER=2D_ARRAY_INTERFACE
		DETECTOR=STARCHECK
		SCAN_CURVETYPE=CROSSPLANE_PROFILE
		SCAN_DEPTH=0.00
		SCAN_OFFAXIS_INPLANE=130.00
		SCAN_ANGLE=0.00
		SCAN_DIAGONAL=NOT_DIAGONAL
		MEAS_PRESET=TIME_PRESET
		MEAS_TIME=10.000
		MEAS_UNIT=GY
		PRESSURE=1013.25
		TEMPERATURE=20.00
		NORM_TEMPERATURE=20.00
		CORRECTION_FACTOR=1.0000
		CORRECTIONS=AIR_DENSITY_CORR;
		BEGIN_DATA
			-130.00		2.7679E-03
			-80.00		4.2564E-03
			-40.00		7.6653E-03
			40.00		7.4310E-03
			80.00		4.3452E-03
			130.00		2.6271E-03
		END_DATA
	END_SCAN  7
	BEGIN_SCAN  8
		TASK_NAME=MODE_INTERVAL
		PROGRAM=BeamAdjust 1.2
		MEAS_DATE=07-Oct-2010 13:45:04
		LINAC=A4
		MODALITY=X
		INPLANE_AXIS_DIR=TARGET_GUN
		CROSSPLANE_AXIS_DIR=LEFT_RIGHT
		DEPTH_AXIS_DIR=UP_DOWN
		ENERGY=6.00
		SSD=950.00
		WEDGE=None
		FIELD_INPLANE=100.00
		FIELD_CROSSPLANE=100.00
		FIELD_TYPE=RECTANGULAR
		GANTRY=0.00
		GANTRY_UPRIGHT_POSITION=0
		GANTRY_ROTATION=CW
		COLL_ANGLE=90.00
		COLL_OFFSET_INPLANE=0.00
		COLL_OFFSET_CROSSPLANE=0.00
		SCAN_DEVICE=STARCHECK
		ELECTROMETER=2D_ARRAY_INTERFACE
		DETECTOR=STARCHECK
		SCAN_CURVETYPE=INPLANE_PROFILE
		SCAN_DEPTH=0.00
		SCAN_OFFAXIS_CROSSPLANE=-130.00
		SCAN_ANGLE=0.00
		SCAN_DIAGONAL=NOT_DIAGONAL
		MEAS_PRESET=TIME_PRESET
		MEAS_TIME=10.000
		MEAS_UNIT=GY
		PRESSURE=1013.25
		TEMPERATURE=20.00
		NORM_TEMPERATURE=20.00
		CORRECTION_FACTOR=1.0000
		CORRECTIONS=AIR_DENSITY_CORR;
		BEGIN_DATA
			-130.00		2.4599E-03
			-125.00		2.5514E-03
			-120.00		2.6250E-03
			-115.00		3.2149E-03
			-110.00		3.2749E-03
			-105.00		3.4550E-03
			-100.00		3.8011E-03
			-95.00		3.9860E-03
			-90.00		4.3284E-03
			-85.00		4.0292E-03
			-80.00		4.4700E-03
			-75.00		4.3869E-03
			-70.00		4.5190E-03
			-65.00		4.7978E-03
			-60.00		4.9142E-03
			-55.00		5.4008E-03
			-50.00		4.2938E-03
			-45.00		4.6002E-03
			-40.00		4.5992E-03
			-35.00		5.2103E-03
			-30.00		5.2283E-03
			-25.00		4.9933E-03
			-20.00		5.1121E-03
			-15.00		4.6806E-03
			-10.00		5.1254E-03
			-5.00		5.9207E-03
			0.00		5.6258E-03
			5.00		5.9729E-03
			10.00		5.4641E-03
			15.00		5.1264E-03
			20.00		5.2528E-03
			25.00		5.2756E-03
			30.00		5.4363E-03
			35.00		5.3303E-03
			40.00		5.1205E-03
			45.00		4.5390E-03
			50.00		4.8554E-03
			55.00		4.7083E-03
			60.00		4.8477E-03
			65.00		4.1407E-03
			70.00		3.9136E-03
			75.00		3.9019E-03
			80.00		3.4646E-03
			85.00		3.5089E-03
			90.00		3.2931E-03
			95.00		3.4598E-03
			100.00		3.1475E-03
			105.00		2.6879E-03
			110.00		3.0674E-03
			115.00		2.7659E-03
			120.00		2.4873E-03
			125.00		2.4653E-03
			130.00		2.7679E-03
		END_DATA
	END_SCAN  8
	BEGIN_SCAN  9
		TASK_NAME=MODE_INTERVAL
		PROGRAM=BeamAdjust 1.2
		MEAS_DATE=07-Oct-2010 13:45:04
		LINAC=A4
		MODALITY=X
		INPLANE_AXIS_DIR=TARGET_GUN
		CROSSPLANE_AXIS_DIR=LEFT_RIGHT
		DEPTH_AXIS_DIR=UP_DOWN
		ENERGY=6.00
		SSD=950.00
		WEDGE=None
		FIELD_INPLANE=100.00
		FIELD_CROSSPLANE=100.00
		FIELD_TYPE=RECTANGULAR
		GANTRY=0.00
		GANTRY_UPRIGHT_POSITION=0
		GANTRY_ROTATION=CW
		COLL_ANGLE=90.00
		COLL_OFFSET_INPLANE=0.00
		COLL_OFFSET_CROSSPLANE=0.00
		SCAN_DEVICE=STARCHECK
		ELECTROMETER=2D_ARRAY_INTERFACE
		DETECTOR=STARCHECK
		SCAN_CURVETYPE=INPLANE_PROFILE
		SCAN_DEPTH=0.00
		SCAN_OFFAXIS_CROSSPLANE=-100.00
		SCAN_ANGLE=0.00
		SCAN_DIAGONAL=NOT_DIAGONAL
		MEAS_PRESET=TIME_PRESET
		MEAS_TIME=10.000
		MEAS_UNIT=GY
		PRESSURE=1013.25
		TEMPERATURE=20.00
		NORM_TEMPERATURE=20.00
		CORRECTION_FACTOR=1.0000
		CORRECTIONS=AIR_DENSITY_CORR;
		BEGIN_DATA
			-60.00		7.6887E-03
			-30.00		9.5159E-03
			30.00		9.2945E-03
			60.00		7.3263E-03
		END_DATA
	END_SCAN  9
	BEGIN_SCAN  10
		TASK_NAME=MODE_INTERVAL
		PROGRAM=BeamAdjust 1.2
		MEAS_DATE=07-Oct-2010 13:45:04
		LINAC=A4
		MODALITY=X
		INPLANE_AXIS_DIR=TARGET_GUN
		CROSSPLANE_AXIS_DIR=LEFT_RIGHT
		DEPTH_AXIS_DIR=UP_DOWN
		ENERGY=6.00
		SSD=950.00
		WEDGE=None
		FIELD_INPLANE=100.00
		FIELD_CROSSPLANE=100.00
		FIELD_TYPE=RECTANGULAR
		GANTRY=0.00
		GANTRY_UPRIGHT_POSITION=0
		GANTRY_ROTATION=CW
		COLL_ANGLE=90.00
		COLL_OFFSET_INPLANE=0.00
		COLL_OFFSET_CROSSPLANE=0.00
		SCAN_DEVICE=STARCHECK
		ELECTROMETER=2D_ARRAY_INTERFACE
		DETECTOR=STARCHECK
		SCAN_CURVETYPE=INPLANE_PROFILE
		SCAN_DEPTH=0.00
		SCAN_OFFAXIS_CROSSPLANE=-50.00
		SCAN_ANGLE=0.00
		SCAN_DIAGONAL=NOT_DIAGONAL
		MEAS_PRESET=TIME_PRESET
		MEAS_TIME=10.000
		MEAS_UNIT=GY
		PRESSURE=1013.25
		TEMPERATURE=20.00
		NORM_TEMPERATURE=20.00
		CORRECTION_FACTOR=1.0000
		CORRECTIONS=AIR_DENSITY_CORR;
		BEGIN_DATA
			-30.00		79.385E-03
			-15.00		81.589E-03
			15.00		79.867E-03
			30.00		74.410E-03
		END_DATA
	END_SCAN  10
	BEGIN_SCAN  11
		TASK_NAME=MODE_INTERVAL
		PROGRAM=BeamAdjust 1.2
		MEAS_DATE=07-Oct-2010 13:45:04
		LINAC=A4
		MODALITY=X
		INPLANE_AXIS_DIR=TARGET_GUN
		CROSSPLANE_AXIS_DIR=LEFT_RIGHT
		DEPTH_AXIS_DIR=UP_DOWN
		ENERGY=6.00
		SSD=950.00
		WEDGE=None
		FIELD_INPLANE=100.00
		FIELD_CROSSPLANE=100.00
		FIELD_TYPE=RECTANGULAR
		GANTRY=0.00
		GANTRY_UPRIGHT_POSITION=0
		GANTRY_ROTATION=CW
		COLL_ANGLE=90.00
		COLL_OFFSET_INPLANE=0.00
		COLL_OFFSET_CROSSPLANE=0.00
		SCAN_DEVICE=STARCHECK
		ELECTROMETER=2D_ARRAY_INTERFACE
		DETECTOR=STARCHECK
		SCAN_CURVETYPE=INPLANE_PROFILE
		SCAN_DEPTH=0.00
		SCAN_OFFAXIS_CROSSPLANE=0.00
		SCAN_ANGLE=0.00
		SCAN_DIAGONAL=NOT_DIAGONAL
		MEAS_PRESET=TIME_PRESET
		MEAS_TIME=10.000
		MEAS_UNIT=GY
		PRESSURE=1013.25
		TEMPERATURE=20.00
		NORM_TEMPERATURE=20.00
		CORRECTION_FACTOR=1.0000
		CORRECTIONS=AIR_DENSITY_CORR;
		BEGIN_DATA
			-126.00		9.3572E-03
			-123.00		9.3148E-03
			-120.00		11.030E-03
			-117.00		11.748E-03
			-114.00		11.866E-03
			-111.00		12.949E-03
			-108.00		13.654E-03
			-105.00		14.872E-03
			-102.00		16.357E-03
			-99.00		16.513E-03
			-96.00		18.417E-03
			-93.00		20.637E-03
			-90.00		21.697E-03
			-87.00		23.780E-03
			-84.00		25.734E-03
			-81.00		28.232E-03
			-78.00		31.167E-03
			-75.00		33.266E-03
			-72.00		36.969E-03
			-69.00		41.021E-03
			-66.00		46.160E-03
			-63.00		52.882E-03
			-60.00		63.066E-03
			-57.00		82.829E-03
			-54.00		134.61E-03
			-51.00		310.12E-03
			-48.00		557.80E-03
			-45.00		623.94E-03
			-42.00		643.36E-03
			-39.00		653.09E-03
			-36.00		658.45E-03
			-33.00		661.84E-03
			-30.00		665.74E-03
			-27.00		666.99E-03
			-24.00		666.21E-03
			-21.00		665.15E-03
			-18.00		671.33E-03
			-15.00		670.08E-03
			-12.00		671.77E-03
			-9.00		672.08E-03
			-6.00		669.49E-03
			0.00		668.92E-03
			6.00		673.32E-03
			9.00		672.24E-03
			12.00		671.58E-03
			15.00		668.82E-03
			18.00		665.01E-03
			21.00		665.16E-03
			24.00		661.33E-03
			27.00		663.15E-03
			30.00		658.71E-03
			33.00		657.07E-03
			36.00		654.50E-03
			39.00		643.53E-03
			42.00		631.55E-03
			45.00		597.76E-03
			48.00		433.12E-03
			51.00		189.88E-03
			54.00		99.899E-03
			57.00		70.325E-03
			60.00		57.263E-03
			63.00		48.970E-03
			66.00		43.799E-03
			69.00		39.051E-03
			72.00		35.236E-03
			75.00		31.631E-03
			78.00		28.687E-03
			81.00		26.642E-03
			84.00		24.750E-03
			87.00		22.978E-03
			90.00		21.015E-03
			93.00		19.805E-03
			96.00		18.967E-03
			99.00		16.781E-03
			102.00		15.375E-03
			105.00		14.487E-03
			108.00		13.723E-03
			111.00		13.009E-03
			114.00		11.842E-03
			117.00		11.081E-03
			120.00		10.691E-03
			123.00		9.7547E-03
			126.00		8.7368E-03
		END_DATA
	END_SCAN  11
	BEGIN_SCAN  12
		TASK_NAME=MODE_INTERVAL
		PROGRAM=BeamAdjust 1.2
		MEAS_DATE=07-Oct-2010 13:45:04
		LINAC=A4
		MODALITY=X
		INPLANE_AXIS_DIR=TARGET_GUN
		CROSSPLANE_AXIS_DIR=LEFT_RIGHT
		DEPTH_AXIS_DIR=UP_DOWN
		ENERGY=6.00
		SSD=950.00
		WEDGE=None
		FIELD_INPLANE=100.00
		FIELD_CROSSPLANE=100.00
		FIELD_TYPE=RECTANGULAR
		GANTRY=0.00
		GANTRY_UPRIGHT_POSITION=0
		GANTRY_ROTATION=CW
		COLL_ANGLE=90.00
		COLL_OFFSET_INPLANE=0.00
		COLL_OFFSET_CROSSPLANE=0.00
		SCAN_DEVICE=STARCHECK
		ELECTROMETER=2D_ARRAY_INTERFACE
		DETECTOR=STARCHECK
		SCAN_CURVETYPE=INPLANE_PROFILE
		SCAN_DEPTH=0.00
		SCAN_OFFAXIS_CROSSPLANE=50.00
		SCAN_ANGLE=0.00
		SCAN_DIAGONAL=NOT_DIAGONAL
		MEAS_PRESET=TIME_PRESET
		MEAS_TIME=10.000
		MEAS_UNIT=GY
		PRESSURE=1013.25
		TEMPERATURE=20.00
		NORM_TEMPERATURE=20.00
		CORRECTION_FACTOR=1.0000
		CORRECTIONS=AIR_DENSITY_CORR;
		BEGIN_DATA
			-30.00		630.82E-03
			-15.00		635.75E-03
			15.00		633.72E-03
			30.00		630.95E-03
		END_DATA
	END_SCAN  12
	BEGIN_SCAN  13
		TASK_NAME=MODE_INTERVAL
		PROGRAM=BeamAdjust 1.2
		MEAS_DATE=07-Oct-2010 13:45:04
		LINAC=A4
		MODALITY=X
		INPLANE_AXIS_DIR=TARGET_GUN
		CROSSPLANE_AXIS_DIR=LEFT_RIGHT
		DEPTH_AXIS_DIR=UP_DOWN
		ENERGY=6.00
		SSD=950.00
		WEDGE=None
		FIELD_INPLANE=100.00
		FIELD_CROSSPLANE=100.00
		FIELD_TYPE=RECTANGULAR
		GANTRY=0.00
		GANTRY_UPRIGHT_POSITION=0
		GANTRY_ROTATION=CW
		COLL_ANGLE=90.00
		COLL_OFFSET_INPLANE=0.00
		COLL_OFFSET_CROSSPLANE=0.00
		SCAN_DEVICE=STARCHECK
		ELECTROMETER=2D_ARRAY_INTERFACE
		DETECTOR=STARCHECK
		SCAN_CURVETYPE=INPLANE_PROFILE
		SCAN_DEPTH=0.00
		SCAN_OFFAXIS_CROSSPLANE=100.00
		SCAN_ANGLE=0.00
		SCAN_DIAGONAL=NOT_DIAGONAL
		MEAS_PRESET=TIME_PRESET
		MEAS_TIME=10.000
		MEAS_UNIT=GY
		PRESSURE=1013.25
		TEMPERATURE=20.00
		NORM_TEMPERATURE=20.00
		CORRECTION_FACTOR=1.0000
		CORRECTIONS=AIR_DENSITY_CORR;
		BEGIN_DATA
			-60.00		9.1577E-03
			-30.00		12.198E-03
			30.00		11.963E-03
			60.00		8.7559E-03
		END_DATA
	END_SCAN  13
	BEGIN_SCAN  14
		TASK_NAME=MODE_INTERVAL
		PROGRAM=BeamAdjust 1.2
		MEAS_DATE=07-Oct-2010 13:45:04
		LINAC=A4
		MODALITY=X
		INPLANE_AXIS_DIR=TARGET_GUN
		CROSSPLANE_AXIS_DIR=LEFT_RIGHT
		DEPTH_AXIS_DIR=UP_DOWN
		ENERGY=6.00
		SSD=950.00
		WEDGE=None
		FIELD_INPLANE=100.00
		FIELD_CROSSPLANE=100.00
		FIELD_TYPE=RECTANGULAR
		GANTRY=0.00
		GANTRY_UPRIGHT_POSITION=0
		GANTRY_ROTATION=CW
		COLL_ANGLE=90.00
		COLL_OFFSET_INPLANE=0.00
		COLL_OFFSET_CROSSPLANE=0.00
		SCAN_DEVICE=STARCHECK
		ELECTROMETER=2D_ARRAY_INTERFACE
		DETECTOR=STARCHECK
		SCAN_CURVETYPE=INPLANE_PROFILE
		SCAN_DEPTH=0.00
		SCAN_OFFAXIS_CROSSPLANE=130.00
		SCAN_ANGLE=0.00
		SCAN_DIAGONAL=NOT_DIAGONAL
		MEAS_PRESET=TIME_PRESET
		MEAS_TIME=10.000
		MEAS_UNIT=GY
		PRESSURE=1013.25
		TEMPERATURE=20.00
		NORM_TEMPERATURE=20.00
		CORRECTION_FACTOR=1.0000
		CORRECTIONS=AIR_DENSITY_CORR;
		BEGIN_DATA
			-130.00		2.2202E-03
			-125.00		3.1236E-03
			-120.00		2.7032E-03
			-115.00		3.2828E-03
			-110.00		2.9488E-03
			-105.00		3.4192E-03
			-100.00		3.9288E-03
			-95.00		3.4236E-03
			-90.00		3.0879E-03
			-85.00		4.3886E-03
			-80.00		3.9837E-03
			-75.00		4.0636E-03
			-70.00		4.6471E-03
			-65.00		4.3967E-03
			-60.00		5.3338E-03
			-55.00		5.0765E-03
			-50.00		5.0240E-03
			-45.00		5.7598E-03
			-40.00		5.8347E-03
			-35.00		5.9769E-03
			-30.00		6.4797E-03
			-25.00		5.9095E-03
			-20.00		6.2057E-03
			-15.00		6.1134E-03
			-10.00		5.4339E-03
			-5.00		6.7320E-03
			0.00		7.1120E-03
			5.00		6.6039E-03
			10.00		6.6573E-03
			15.00		6.0297E-03
			20.00		6.2599E-03
			25.00		6.4667E-03
			30.00		5.4231E-03
			35.00		5.7068E-03
			40.00		6.0329E-03
			45.00		5.3354E-03
			50.00		5.1923E-03
			55.00		5.4915E-03
			60.00		4.9528E-03
			65.00		4.5444E-03
			70.00		4.7518E-03
			75.00		4.4341E-03
			80.00		4.3334E-03
			85.00		4.1251E-03
			90.00		3.8496E-03
			95.00		3.5330E-03
			100.00		3.7739E-03
			105.00		3.0394E-03
			110.00		3.1498E-03
			115.00		2.8463E-03
			120.00		3.0840E-03
			125.00		2.7476E-03
			130.00		2.6271E-03
		END_DATA
	END_SCAN  14
	BEGIN_SCAN  15
		TASK_NAME=MODE_INTERVAL
		PROGRAM=BeamAdjust 1.2
		MEAS_DATE=07-Oct-2010 13:45:04
		LINAC=A4
		MODALITY=X
		INPLANE_AXIS_DIR=TARGET_GUN
		CROSSPLANE_AXIS_DIR=LEFT_RIGHT
		DEPTH_AXIS_DIR=UP_DOWN
		ENERGY=6.00
		SSD=950.00
		WEDGE=None
		FIELD_INPLANE=100.00
		FIELD_CROSSPLANE=100.00
		FIELD_TYPE=RECTANGULAR
		GANTRY=0.00
		GANTRY_UPRIGHT_POSITION=0
		GANTRY_ROTATION=CW
		COLL_ANGLE=90.00
		COLL_OFFSET_INPLANE=0.00
		COLL_OFFSET_CROSSPLANE=0.00
		SCAN_DEVICE=STARCHECK
		ELECTROMETER=2D_ARRAY_INTERFACE
		DETECTOR=STARCHECK
		SCAN_CURVETYPE=INPLANE_PROFILE
		SCAN_DEPTH=0.00
		SCAN_OFFAXIS_CROSSPLANE=0.00
		SCAN_ANGLE=0.00
		SCAN_DIAGONAL=FIRST_DIAGONAL
		MEAS_PRESET=TIME_PRESET
		MEAS_TIME=10.000
		MEAS_UNIT=GY
		PRESSURE=1013.25
		TEMPERATURE=20.00
		NORM_TEMPERATURE=20.00
		CORRECTION_FACTOR=1.0000
		CORRECTIONS=AIR_DENSITY_CORR;
		BEGIN_DATA
			-172.40		2.6120E-03
			-169.40		2.9203E-03
			-166.40		4.1015E-03
			-163.40		3.5434E-03
			-160.40		3.9415E-03
			-157.40		3.8248E-03
			-154.40		3.7412E-03
			-151.40		4.0164E-03
			-148.40		4.3164E-03
			-145.40		5.1822E-03
			-142.40		5.4935E-03
			-139.40		5.5837E-03
			-136.40		5.8859E-03
			-133.40		6.6392E-03
			-130.40		6.7695E-03
			-127.40		7.2651E-03
			-124.40		7.8498E-03
			-121.40		8.2001E-03
			-118.40		9.3708E-03
			-115.40		9.6017E-03
			-112.40		10.430E-03
			-109.40		11.612E-03
			-106.40		12.559E-03
			-103.40		13.099E-03
			-100.40		13.743E-03
			-97.40		15.973E-03
			-94.40		17.612E-03
			-91.40		19.067E-03
			-88.40		21.808E-03
			-85.40		23.819E-03
			-82.40		27.312E-03
			-79.40		30.414E-03
			-76.40		34.895E-03
			-73.40		45.149E-03
			-70.40		67.849E-03
			-67.40		146.55E-03
			-64.40		310.51E-03
			-61.40		469.71E-03
			-58.40		573.31E-03
			-55.40		614.64E-03
			-52.40		631.95E-03
			-49.40		641.39E-03
			-46.40		646.90E-03
			-43.40		649.95E-03
			-40.40		654.49E-03
			-37.40		659.30E-03
			-34.40		659.04E-03
			-31.40		661.63E-03
			-28.40		660.74E-03
			-25.40		663.77E-03
			-22.40		664.32E-03
			-19.40		663.66E-03
			-16.40		667.14E-03
			-13.40		670.93E-03
			0.00		668.92E-03
			13.40		674.42E-03
			16.40		670.30E-03
			19.40		669.32E-03
			22.40		667.69E-03
			25.40		667.45E-03
			28.40		665.68E-03
			31.40		663.79E-03
			34.40		661.30E-03
			37.40		663.88E-03
			40.40		661.36E-03
			43.40		658.40E-03
			46.40		656.97E-03
			49.40		651.91E-03
			52.40		647.32E-03
			55.40		638.12E-03
			58.40		626.78E-03
			61.40		601.72E-03
			64.40		531.37E-03
			67.40		404.73E-03
			70.40		247.52E-03
			73.40		126.40E-03
			76.40		66.224E-03
			79.40		46.180E-03
			82.40		36.927E-03
			85.40		31.035E-03
			88.40		27.822E-03
			91.40		24.200E-03
			94.40		21.993E-03
			97.40		19.832E-03
			100.40		17.711E-03
			103.40		16.438E-03
			106.40		15.279E-03
			109.40		13.958E-03
			112.40		11.875E-03
			115.40		11.206E-03
			118.40		10.107E-03
			121.40		9.5861E-03
			124.40		9.0487E-03
			127.40		8.4687E-03
			130.40		8.2073E-03
			133.40		7.1128E-03
			136.40		6.1313E-03
			139.40		5.9744E-03
			142.40		5.8647E-03
			145.40		5.7119E-03
			148.40		5.4212E-03
			151.40		4.8624E-03
			154.40		4.6383E-03
			157.40		4.1845E-03
			160.40		3.5006E-03
			163.40		3.4194E-03
			166.40		3.5578E-03
			169.40		3.9949E-03
			172.40		3.4533E-03
		END_DATA
	END_SCAN  15
	BEGIN_SCAN  16
		TASK_NAME=MODE_INTERVAL
		PROGRAM=BeamAdjust 1.2
		MEAS_DATE=07-Oct-2010 13:45:04
		LINAC=A4
		MODALITY=X
		INPLANE_AXIS_DIR=GUN_TARGET
		CROSSPLANE_AXIS_DIR=LEFT_RIGHT
		DEPTH_AXIS_DIR=UP_DOWN
		ENERGY=6.00
		SSD=950.00
		WEDGE=None
		FIELD_INPLANE=100.00
		FIELD_CROSSPLANE=100.00
		FIELD_TYPE=RECTANGULAR
		GANTRY=0.00
		GANTRY_UPRIGHT_POSITION=0
		GANTRY_ROTATION=CW
		COLL_ANGLE=90.00
		COLL_OFFSET_INPLANE=0.00
		COLL_OFFSET_CROSSPLANE=0.00
		SCAN_DEVICE=STARCHECK
		ELECTROMETER=2D_ARRAY_INTERFACE
		DETECTOR=STARCHECK
		SCAN_CURVETYPE=INPLANE_PROFILE
		SCAN_DEPTH=0.00
		SCAN_OFFAXIS_CROSSPLANE=0.00
		SCAN_ANGLE=0.00
		SCAN_DIAGONAL=SECOND_DIAGONAL
		MEAS_PRESET=TIME_PRESET
		MEAS_TIME=10.000
		MEAS_UNIT=GY
		PRESSURE=1013.25
		TEMPERATURE=20.00
		NORM_TEMPERATURE=20.00
		CORRECTION_FACTOR=1.0000
		CORRECTIONS=AIR_DENSITY_CORR;
		BEGIN_DATA
			-172.40		3.2250E-03
			-169.40		3.0936E-03
			-166.40		3.6549E-03
			-163.40		3.4560E-03
			-160.40		3.4960E-03
			-157.40		4.4812E-03
			-154.40		4.5860E-03
			-151.40		4.6831E-03
			-148.40		5.3904E-03
			-145.40		5.4526E-03
			-142.40		6.2406E-03
			-139.40		6.8005E-03
			-136.40		6.0682E-03
			-133.40		7.2994E-03
			-130.40		7.5919E-03
			-127.40		8.3889E-03
			-124.40		9.2379E-03
			-121.40		9.9237E-03
			-118.40		10.512E-03
			-115.40		11.451E-03
			-112.40		12.149E-03
			-109.40		13.871E-03
			-106.40		15.270E-03
			-103.40		16.536E-03
			-100.40		18.886E-03
			-97.40		19.840E-03
			-94.40		21.970E-03
			-91.40		24.869E-03
			-88.40		27.671E-03
			-85.40		31.895E-03
			-82.40		38.858E-03
			-79.40		51.352E-03
			-76.40		84.870E-03
			-73.40		198.05E-03
			-70.40		373.38E-03
			-67.40		518.82E-03
			-64.40		595.43E-03
			-61.40		625.81E-03
			-58.40		641.57E-03
			-55.40		647.69E-03
			-52.40		656.06E-03
			-49.40		659.11E-03
			-46.40		661.63E-03
			-43.40		663.90E-03
			-40.40		665.72E-03
			-37.40		668.97E-03
			-34.40		667.82E-03
			-31.40		668.23E-03
			-28.40		670.10E-03
			-25.40		668.88E-03
			-22.40		667.64E-03
			-19.40		672.04E-03
			-16.40		673.68E-03
			-13.40		674.40E-03
			0.00		668.92E-03
			13.40		670.49E-03
			16.40		668.31E-03
			19.40		665.65E-03
			22.40		663.14E-03
			25.40		662.49E-03
			28.40		660.90E-03
			31.40		659.09E-03
			34.40		655.91E-03
			37.40		654.42E-03
			40.40		652.81E-03
			43.40		649.43E-03
			46.40		645.79E-03
			49.40		639.62E-03
			52.40		625.43E-03
			55.40		604.44E-03
			58.40		557.06E-03
			61.40		432.39E-03
			64.40		249.13E-03
			67.40		103.37E-03
			70.40		56.511E-03
			73.40		40.952E-03
			76.40		33.683E-03
			79.40		28.496E-03
			82.40		25.919E-03
			85.40		23.360E-03
			88.40		21.016E-03
			91.40		19.585E-03
			94.40		17.263E-03
			97.40		15.830E-03
			100.40		13.834E-03
			103.40		12.622E-03
			106.40		12.226E-03
			109.40		10.980E-03
			112.40		10.205E-03
			115.40		9.6668E-03
			118.40		8.7969E-03
			121.40		7.8973E-03
			124.40		7.4304E-03
			127.40		6.9511E-03
			130.40		6.9068E-03
			133.40		6.6268E-03
			136.40		5.5869E-03
			139.40		5.8220E-03
			142.40		5.5190E-03
			145.40		4.9211E-03
			148.40		4.6441E-03
			151.40		4.1660E-03
			154.40		4.0094E-03
			157.40		3.8999E-03
			160.40		3.8220E-03
			163.40		3.8464E-03
			166.40		3.6594E-03
			169.40		3.0211E-03
			172.40		2.8459E-03
		END_DATA
	END_SCAN  16
END_SCAN_DATA
