BEGIN_SCAN_DATA
	FORMAT=CC-Export V1.9                  
	FILE_CREATION_DATE=07-Oct-2010 13:44:29
	LAST_MODIFIED=07-Oct-2010 13:44:29
	BEGIN_SCAN  1
		TASK_NAME=MODE_INTERVAL
		PROGRAM=BeamAdjust 1.2
		MEAS_DATE=07-Oct-2010 13:44:29
		LINAC=A4
		MODALITY=X
		INPLANE_AXIS_DIR=TARGET_GUN
		CROSSPLANE_AXIS_DIR=LEFT_RIGHT
		DEPTH_AXIS_DIR=UP_DOWN
		ENERGY=6.00
		SSD=950.00
		WEDGE=None
		FIELD_INPLANE=100.00
		FIELD_CROSSPLANE=100.00
		FIELD_TYPE=RECTANGULAR
		GANTRY=0.00
		GANTRY_UPRIGHT_POSITION=0
		GANTRY_ROTATION=CW
		COLL_ANGLE=90.00
		COLL_OFFSET_INPLANE=0.00
		COLL_OFFSET_CROSSPLANE=0.00
		SCAN_DEVICE=STARCHECK
		ELECTROMETER=2D_ARRAY_INTERFACE
		DETECTOR=STARCHECK
		SCAN_CURVETYPE=CROSSPLANE_PROFILE
		SCAN_DEPTH=0.00
		SCAN_OFFAXIS_INPLANE=-130.00
		SCAN_ANGLE=0.00
		SCAN_DIAGONAL=NOT_DIAGONAL
		MEAS_PRESET=TIME_PRESET
		MEAS_TIME=10.000
		MEAS_UNIT=GY
		PRESSURE=1013.25
		TEMPERATURE=20.00
		NORM_TEMPERATURE=20.00
		CORRECTION_FACTOR=1.0000
		CORRECTIONS=AIR_DENSITY_CORR;
		BEGIN_DATA
			-130.00		2.3901E-03
			-80.00		4.1731E-03
			-40.00		6.7752E-03
			40.00		7.3903E-03
			80.00		4.5392E-03
			130.00		2.2067E-03
		END_DATA
	END_SCAN  1
	BEGIN_SCAN  2
		TASK_NAME=MODE_INTERVAL
		PROGRAM=BeamAdjust 1.2
		MEAS_DATE=07-Oct-2010 13:44:29
		LINAC=A4
		MODALITY=X
		INPLANE_AXIS_DIR=TARGET_GUN
		CROSSPLANE_AXIS_DIR=LEFT_RIGHT
		DEPTH_AXIS_DIR=UP_DOWN
		ENERGY=6.00
		SSD=950.00
		WEDGE=None
		FIELD_INPLANE=100.00
		FIELD_CROSSPLANE=100.00
		FIELD_TYPE=RECTANGULAR
		GANTRY=0.00
		GANTRY_UPRIGHT_POSITION=0
		GANTRY_ROTATION=CW
		COLL_ANGLE=90.00
		COLL_OFFSET_INPLANE=0.00
		COLL_OFFSET_CROSSPLANE=0.00
		SCAN_DEVICE=STARCHECK
		ELECTROMETER=2D_ARRAY_INTERFACE
		DETECTOR=STARCHECK
		SCAN_CURVETYPE=CROSSPLANE_PROFILE
		SCAN_DEPTH=0.00
		SCAN_OFFAXIS_INPLANE=-100.00
		SCAN_ANGLE=0.00
		SCAN_DIAGONAL=NOT_DIAGONAL
		MEAS_PRESET=TIME_PRESET
		MEAS_TIME=10.000
		MEAS_UNIT=GY
		PRESSURE=1013.25
		TEMPERATURE=20.00
		NORM_TEMPERATURE=20.00
		CORRECTION_FACTOR=1.0000
		CORRECTIONS=AIR_DENSITY_CORR;
		BEGIN_DATA
			-60.00		10.056E-03
			-30.00		14.024E-03
			30.00		15.621E-03
			60.00		11.148E-03
		END_DATA
	END_SCAN  2
	BEGIN_SCAN  3
		TASK_NAME=MODE_INTERVAL
		PROGRAM=BeamAdjust 1.2
		MEAS_DATE=07-Oct-2010 13:44:29
		LINAC=A4
		MODALITY=X
		INPLANE_AXIS_DIR=TARGET_GUN
		CROSSPLANE_AXIS_DIR=LEFT_RIGHT
		DEPTH_AXIS_DIR=UP_DOWN
		ENERGY=6.00
		SSD=950.00
		WEDGE=None
		FIELD_INPLANE=100.00
		FIELD_CROSSPLANE=100.00
		FIELD_TYPE=RECTANGULAR
		GANTRY=0.00
		GANTRY_UPRIGHT_POSITION=0
		GANTRY_ROTATION=CW
		COLL_ANGLE=90.00
		COLL_OFFSET_INPLANE=0.00
		COLL_OFFSET_CROSSPLANE=0.00
		SCAN_DEVICE=STARCHECK
		ELECTROMETER=2D_ARRAY_INTERFACE
		DETECTOR=STARCHECK
		SCAN_CURVETYPE=CROSSPLANE_PROFILE
		SCAN_DEPTH=0.00
		SCAN_OFFAXIS_INPLANE=-50.00
		SCAN_ANGLE=0.00
		SCAN_DIAGONAL=NOT_DIAGONAL
		MEAS_PRESET=TIME_PRESET
		MEAS_TIME=10.000
		MEAS_UNIT=GY
		PRESSURE=1013.25
		TEMPERATURE=20.00
		NORM_TEMPERATURE=20.00
		CORRECTION_FACTOR=1.0000
		CORRECTIONS=AIR_DENSITY_CORR;
		BEGIN_DATA
			-30.00		385.30E-03
			-15.00		378.22E-03
			15.00		393.42E-03
			30.00		391.27E-03
		END_DATA
	END_SCAN  3
	BEGIN_SCAN  4
		TASK_NAME=MODE_INTERVAL
		PROGRAM=BeamAdjust 1.2
		MEAS_DATE=07-Oct-2010 13:44:29
		LINAC=A4
		MODALITY=X
		INPLANE_AXIS_DIR=TARGET_GUN
		CROSSPLANE_AXIS_DIR=LEFT_RIGHT
		DEPTH_AXIS_DIR=UP_DOWN
		ENERGY=6.00
		SSD=950.00
		WEDGE=None
		FIELD_INPLANE=100.00
		FIELD_CROSSPLANE=100.00
		FIELD_TYPE=RECTANGULAR
		GANTRY=0.00
		GANTRY_UPRIGHT_POSITION=0
		GANTRY_ROTATION=CW
		COLL_ANGLE=90.00
		COLL_OFFSET_INPLANE=0.00
		COLL_OFFSET_CROSSPLANE=0.00
		SCAN_DEVICE=STARCHECK
		ELECTROMETER=2D_ARRAY_INTERFACE
		DETECTOR=STARCHECK
		SCAN_CURVETYPE=CROSSPLANE_PROFILE
		SCAN_DEPTH=0.00
		SCAN_OFFAXIS_INPLANE=0.00
		SCAN_ANGLE=0.00
		SCAN_DIAGONAL=NOT_DIAGONAL
		MEAS_PRESET=TIME_PRESET
		MEAS_TIME=10.000
		MEAS_UNIT=GY
		PRESSURE=1013.25
		TEMPERATURE=20.00
		NORM_TEMPERATURE=20.00
		CORRECTION_FACTOR=1.0000
		CORRECTIONS=AIR_DENSITY_CORR;
		BEGIN_DATA
			-126.00		6.6006E-03
			-123.00		7.2322E-03
			-120.00		7.5003E-03
			-117.00		8.1479E-03
			-114.00		8.0108E-03
			-111.00		8.6611E-03
			-108.00		9.6092E-03
			-105.00		9.7898E-03
			-102.00		10.833E-03
			-99.00		11.804E-03
			-96.00		12.286E-03
			-93.00		13.552E-03
			-90.00		14.444E-03
			-87.00		15.890E-03
			-84.00		17.681E-03
			-81.00		18.810E-03
			-78.00		20.216E-03
			-75.00		22.800E-03
			-72.00		25.038E-03
			-69.00		27.890E-03
			-66.00		31.742E-03
			-63.00		34.802E-03
			-60.00		39.941E-03
			-57.00		46.792E-03
			-54.00		57.368E-03
			-51.00		78.343E-03
			-48.00		129.47E-03
			-45.00		346.24E-03
			-42.00		572.86E-03
			-39.00		625.18E-03
			-36.00		643.39E-03
			-33.00		648.62E-03
			-30.00		652.88E-03
			-27.00		656.54E-03
			-24.00		660.56E-03
			-21.00		660.31E-03
			-18.00		666.10E-03
			-15.00		665.48E-03
			-12.00		665.66E-03
			-9.00		670.68E-03
			-6.00		670.70E-03
			0.00		668.85E-03
			6.00		671.00E-03
			9.00		670.16E-03
			12.00		668.35E-03
			15.00		669.68E-03
			18.00		669.62E-03
			21.00		667.84E-03
			24.00		663.32E-03
			27.00		667.23E-03
			30.00		666.70E-03
			33.00		665.52E-03
			36.00		664.38E-03
			39.00		661.94E-03
			42.00		657.37E-03
			45.00		650.96E-03
			48.00		638.11E-03
			51.00		606.84E-03
			54.00		486.43E-03
			57.00		189.54E-03
			60.00		93.126E-03
			63.00		65.295E-03
			66.00		51.577E-03
			69.00		42.911E-03
			72.00		37.343E-03
			75.00		33.028E-03
			78.00		29.180E-03
			81.00		26.365E-03
			84.00		24.031E-03
			87.00		21.424E-03
			90.00		20.576E-03
			93.00		17.703E-03
			96.00		16.133E-03
			99.00		14.839E-03
			102.00		13.613E-03
			105.00		12.579E-03
			108.00		12.025E-03
			111.00		10.663E-03
			114.00		10.112E-03
			117.00		9.3594E-03
			120.00		8.5649E-03
			123.00		7.8677E-03
			126.00		8.0431E-03
		END_DATA
	END_SCAN  4
	BEGIN_SCAN  5
		TASK_NAME=MODE_INTERVAL
		PROGRAM=BeamAdjust 1.2
		MEAS_DATE=07-Oct-2010 13:44:29
		LINAC=A4
		MODALITY=X
		INPLANE_AXIS_DIR=TARGET_GUN
		CROSSPLANE_AXIS_DIR=LEFT_RIGHT
		DEPTH_AXIS_DIR=UP_DOWN
		ENERGY=6.00
		SSD=950.00
		WEDGE=None
		FIELD_INPLANE=100.00
		FIELD_CROSSPLANE=100.00
		FIELD_TYPE=RECTANGULAR
		GANTRY=0.00
		GANTRY_UPRIGHT_POSITION=0
		GANTRY_ROTATION=CW
		COLL_ANGLE=90.00
		COLL_OFFSET_INPLANE=0.00
		COLL_OFFSET_CROSSPLANE=0.00
		SCAN_DEVICE=STARCHECK
		ELECTROMETER=2D_ARRAY_INTERFACE
		DETECTOR=STARCHECK
		SCAN_CURVETYPE=CROSSPLANE_PROFILE
		SCAN_DEPTH=0.00
		SCAN_OFFAXIS_INPLANE=50.00
		SCAN_ANGLE=0.00
		SCAN_DIAGONAL=NOT_DIAGONAL
		MEAS_PRESET=TIME_PRESET
		MEAS_TIME=10.000
		MEAS_UNIT=GY
		PRESSURE=1013.25
		TEMPERATURE=20.00
		NORM_TEMPERATURE=20.00
		CORRECTION_FACTOR=1.0000
		CORRECTIONS=AIR_DENSITY_CORR;
		BEGIN_DATA
			-30.00		262.21E-03
			-15.00		282.96E-03
			15.00		269.87E-03
			30.00		255.58E-03
		END_DATA
	END_SCAN  5
	BEGIN_SCAN  6
		TASK_NAME=MODE_INTERVAL
		PROGRAM=BeamAdjust 1.2
		MEAS_DATE=07-Oct-2010 13:44:29
		LINAC=A4
		MODALITY=X
		INPLANE_AXIS_DIR=TARGET_GUN
		CROSSPLANE_AXIS_DIR=LEFT_RIGHT
		DEPTH_AXIS_DIR=UP_DOWN
		ENERGY=6.00
		SSD=950.00
		WEDGE=None
		FIELD_INPLANE=100.00
		FIELD_CROSSPLANE=100.00
		FIELD_TYPE=RECTANGULAR
		GANTRY=0.00
		GANTRY_UPRIGHT_POSITION=0
		GANTRY_ROTATION=CW
		COLL_ANGLE=90.00
		COLL_OFFSET_INPLANE=0.00
		COLL_OFFSET_CROSSPLANE=0.00
		SCAN_DEVICE=STARCHECK
		ELECTROMETER=2D_ARRAY_INTERFACE
		DETECTOR=STARCHECK
		SCAN_CURVETYPE=CROSSPLANE_PROFILE
		SCAN_DEPTH=0.00
		SCAN_OFFAXIS_INPLANE=100.00
		SCAN_ANGLE=0.00
		SCAN_DIAGONAL=NOT_DIAGONAL
		MEAS_PRESET=TIME_PRESET
		MEAS_TIME=10.000
		MEAS_UNIT=GY
		PRESSURE=1013.25
		TEMPERATURE=20.00
		NORM_TEMPERATURE=20.00
		CORRECTION_FACTOR=1.0000
		CORRECTIONS=AIR_DENSITY_CORR;
		BEGIN_DATA
			-60.00		9.5841E-03
			-30.00		14.433E-03
			30.00		14.930E-03
			60.00		10.481E-03
		END_DATA
	END_SCAN  6
	BEGIN_SCAN  7
		TASK_NAME=MODE_INTERVAL
		PROGRAM=BeamAdjust 1.2
		MEAS_DATE=07-Oct-2010 13:44:29
		LINAC=A4
		MODALITY=X
		INPLANE_AXIS_DIR=TARGET_GUN
		CROSSPLANE_AXIS_DIR=LEFT_RIGHT
		DEPTH_AXIS_DIR=UP_DOWN
		ENERGY=6.00
		SSD=950.00
		WEDGE=None
		FIELD_INPLANE=100.00
		FIELD_CROSSPLANE=100.00
		FIELD_TYPE=RECTANGULAR
		GANTRY=0.00
		GANTRY_UPRIGHT_POSITION=0
		GANTRY_ROTATION=CW
		COLL_ANGLE=90.00
		COLL_OFFSET_INPLANE=0.00
		COLL_OFFSET_CROSSPLANE=0.00
		SCAN_DEVICE=STARCHECK
		ELECTROMETER=2D_ARRAY_INTERFACE
		DETECTOR=STARCHECK
		SCAN_CURVETYPE=CROSSPLANE_PROFILE
		SCAN_DEPTH=0.00
		SCAN_OFFAXIS_INPLANE=130.00
		SCAN_ANGLE=0.00
		SCAN_DIAGONAL=NOT_DIAGONAL
		MEAS_PRESET=TIME_PRESET
		MEAS_TIME=10.000
		MEAS_UNIT=GY
		PRESSURE=1013.25
		TEMPERATURE=20.00
		NORM_TEMPERATURE=20.00
		CORRECTION_FACTOR=1.0000
		CORRECTIONS=AIR_DENSITY_CORR;
		BEGIN_DATA
			-130.00		2.0537E-03
			-80.00		4.1434E-03
			-40.00		7.5530E-03
			40.00		7.5111E-03
			80.00		4.8540E-03
			130.00		2.7099E-03
		END_DATA
	END_SCAN  7
	BEGIN_SCAN  8
		TASK_NAME=MODE_INTERVAL
		PROGRAM=BeamAdjust 1.2
		MEAS_DATE=07-Oct-2010 13:44:29
		LINAC=A4
		MODALITY=X
		INPLANE_AXIS_DIR=TARGET_GUN
		CROSSPLANE_AXIS_DIR=LEFT_RIGHT
		DEPTH_AXIS_DIR=UP_DOWN
		ENERGY=6.00
		SSD=950.00
		WEDGE=None
		FIELD_INPLANE=100.00
		FIELD_CROSSPLANE=100.00
		FIELD_TYPE=RECTANGULAR
		GANTRY=0.00
		GANTRY_UPRIGHT_POSITION=0
		GANTRY_ROTATION=CW
		COLL_ANGLE=90.00
		COLL_OFFSET_INPLANE=0.00
		COLL_OFFSET_CROSSPLANE=0.00
		SCAN_DEVICE=STARCHECK
		ELECTROMETER=2D_ARRAY_INTERFACE
		DETECTOR=STARCHECK
		SCAN_CURVETYPE=INPLANE_PROFILE
		SCAN_DEPTH=0.00
		SCAN_OFFAXIS_CROSSPLANE=-130.00
		SCAN_ANGLE=0.00
		SCAN_DIAGONAL=NOT_DIAGONAL
		MEAS_PRESET=TIME_PRESET
		MEAS_TIME=10.000
		MEAS_UNIT=GY
		PRESSURE=1013.25
		TEMPERATURE=20.00
		NORM_TEMPERATURE=20.00
		CORRECTION_FACTOR=1.0000
		CORRECTIONS=AIR_DENSITY_CORR;
		BEGIN_DATA
			-130.00		2.3901E-03
			-125.00		2.6283E-03
			-120.00		2.7702E-03
			-115.00		3.0626E-03
			-110.00		2.7923E-03
			-105.00		3.4654E-03
			-100.00		3.9424E-03
			-95.00		4.0053E-03
			-90.00		4.4409E-03
			-85.00		4.6647E-03
			-80.00		3.8766E-03
			-75.00		4.5445E-03
			-70.00		4.5768E-03
			-65.00		4.6632E-03
			-60.00		4.5122E-03
			-55.00		5.4394E-03
			-50.00		4.1707E-03
			-45.00		4.5706E-03
			-40.00		4.5859E-03
			-35.00		5.5135E-03
			-30.00		5.2239E-03
			-25.00		4.6478E-03
			-20.00		4.9033E-03
			-15.00		5.1358E-03
			-10.00		4.8377E-03
			-5.00		5.9370E-03
			0.00		5.4580E-03
			5.00		6.1575E-03
			10.00		5.4107E-03
			15.00		5.0626E-03
			20.00		5.5634E-03
			25.00		4.6817E-03
			30.00		5.2094E-03
			35.00		5.0874E-03
			40.00		5.0033E-03
			45.00		4.6671E-03
			50.00		4.7468E-03
			55.00		4.7945E-03
			60.00		4.4960E-03
			65.00		4.1674E-03
			70.00		3.7903E-03
			75.00		3.8974E-03
			80.00		3.7498E-03
			85.00		3.4881E-03
			90.00		3.7654E-03
			95.00		3.3685E-03
			100.00		3.6001E-03
			105.00		2.7402E-03
			110.00		2.7558E-03
			115.00		2.7956E-03
			120.00		2.9170E-03
			125.00		2.6630E-03
			130.00		2.0537E-03
		END_DATA
	END_SCAN  8
	BEGIN_SCAN  9
		TASK_NAME=MODE_INTERVAL
		PROGRAM=BeamAdjust 1.2
		MEAS_DATE=07-Oct-2010 13:44:29
		LINAC=A4
		MODALITY=X
		INPLANE_AXIS_DIR=TARGET_GUN
		CROSSPLANE_AXIS_DIR=LEFT_RIGHT
		DEPTH_AXIS_DIR=UP_DOWN
		ENERGY=6.00
		SSD=950.00
		WEDGE=None
		FIELD_INPLANE=100.00
		FIELD_CROSSPLANE=100.00
		FIELD_TYPE=RECTANGULAR
		GANTRY=0.00
		GANTRY_UPRIGHT_POSITION=0
		GANTRY_ROTATION=CW
		COLL_ANGLE=90.00
		COLL_OFFSET_INPLANE=0.00
		COLL_OFFSET_CROSSPLANE=0.00
		SCAN_DEVICE=STARCHECK
		ELECTROMETER=2D_ARRAY_INTERFACE
		DETECTOR=STARCHECK
		SCAN_CURVETYPE=INPLANE_PROFILE
		SCAN_DEPTH=0.00
		SCAN_OFFAXIS_CROSSPLANE=-100.00
		SCAN_ANGLE=0.00
		SCAN_DIAGONAL=NOT_DIAGONAL
		MEAS_PRESET=TIME_PRESET
		MEAS_TIME=10.000
		MEAS_UNIT=GY
		PRESSURE=1013.25
		TEMPERATURE=20.00
		NORM_TEMPERATURE=20.00
		CORRECTION_FACTOR=1.0000
		CORRECTIONS=AIR_DENSITY_CORR;
		BEGIN_DATA
			-60.00		7.9390E-03
			-30.00		9.9243E-03
			30.00		9.2737E-03
			60.00		7.6522E-03
		END_DATA
	END_SCAN  9
	BEGIN_SCAN  10
		TASK_NAME=MODE_INTERVAL
		PROGRAM=BeamAdjust 1.2
		MEAS_DATE=07-Oct-2010 13:44:29
		LINAC=A4
		MODALITY=X
		INPLANE_AXIS_DIR=TARGET_GUN
		CROSSPLANE_AXIS_DIR=LEFT_RIGHT
		DEPTH_AXIS_DIR=UP_DOWN
		ENERGY=6.00
		SSD=950.00
		WEDGE=None
		FIELD_INPLANE=100.00
		FIELD_CROSSPLANE=100.00
		FIELD_TYPE=RECTANGULAR
		GANTRY=0.00
		GANTRY_UPRIGHT_POSITION=0
		GANTRY_ROTATION=CW
		COLL_ANGLE=90.00
		COLL_OFFSET_INPLANE=0.00
		COLL_OFFSET_CROSSPLANE=0.00
		SCAN_DEVICE=STARCHECK
		ELECTROMETER=2D_ARRAY_INTERFACE
		DETECTOR=STARCHECK
		SCAN_CURVETYPE=INPLANE_PROFILE
		SCAN_DEPTH=0.00
		SCAN_OFFAXIS_CROSSPLANE=-50.00
		SCAN_ANGLE=0.00
		SCAN_DIAGONAL=NOT_DIAGONAL
		MEAS_PRESET=TIME_PRESET
		MEAS_TIME=10.000
		MEAS_UNIT=GY
		PRESSURE=1013.25
		TEMPERATURE=20.00
		NORM_TEMPERATURE=20.00
		CORRECTION_FACTOR=1.0000
		CORRECTIONS=AIR_DENSITY_CORR;
		BEGIN_DATA
			-30.00		74.514E-03
			-15.00		77.603E-03
			15.00		75.548E-03
			30.00		69.971E-03
		END_DATA
	END_SCAN  10
	BEGIN_SCAN  11
		TASK_NAME=MODE_INTERVAL
		PROGRAM=BeamAdjust 1.2
		MEAS_DATE=07-Oct-2010 13:44:29
		LINAC=A4
		MODALITY=X
		INPLANE_AXIS_DIR=TARGET_GUN
		CROSSPLANE_AXIS_DIR=LEFT_RIGHT
		DEPTH_AXIS_DIR=UP_DOWN
		ENERGY=6.00
		SSD=950.00
		WEDGE=None
		FIELD_INPLANE=100.00
		FIELD_CROSSPLANE=100.00
		FIELD_TYPE=RECTANGULAR
		GANTRY=0.00
		GANTRY_UPRIGHT_POSITION=0
		GANTRY_ROTATION=CW
		COLL_ANGLE=90.00
		COLL_OFFSET_INPLANE=0.00
		COLL_OFFSET_CROSSPLANE=0.00
		SCAN_DEVICE=STARCHECK
		ELECTROMETER=2D_ARRAY_INTERFACE
		DETECTOR=STARCHECK
		SCAN_CURVETYPE=INPLANE_PROFILE
		SCAN_DEPTH=0.00
		SCAN_OFFAXIS_CROSSPLANE=0.00
		SCAN_ANGLE=0.00
		SCAN_DIAGONAL=NOT_DIAGONAL
		MEAS_PRESET=TIME_PRESET
		MEAS_TIME=10.000
		MEAS_UNIT=GY
		PRESSURE=1013.25
		TEMPERATURE=20.00
		NORM_TEMPERATURE=20.00
		CORRECTION_FACTOR=1.0000
		CORRECTIONS=AIR_DENSITY_CORR;
		BEGIN_DATA
			-126.00		9.8498E-03
			-123.00		9.4915E-03
			-120.00		10.709E-03
			-117.00		11.425E-03
			-114.00		12.039E-03
			-111.00		12.950E-03
			-108.00		13.656E-03
			-105.00		14.543E-03
			-102.00		16.542E-03
			-99.00		16.857E-03
			-96.00		18.126E-03
			-93.00		20.520E-03
			-90.00		22.074E-03
			-87.00		23.569E-03
			-84.00		25.913E-03
			-81.00		28.309E-03
			-78.00		30.975E-03
			-75.00		33.005E-03
			-72.00		36.852E-03
			-69.00		41.000E-03
			-66.00		46.110E-03
			-63.00		52.552E-03
			-60.00		63.072E-03
			-57.00		83.052E-03
			-54.00		133.84E-03
			-51.00		309.31E-03
			-48.00		558.18E-03
			-45.00		624.02E-03
			-42.00		644.63E-03
			-39.00		653.24E-03
			-36.00		658.97E-03
			-33.00		662.08E-03
			-30.00		666.00E-03
			-27.00		667.26E-03
			-24.00		666.11E-03
			-21.00		665.26E-03
			-18.00		671.62E-03
			-15.00		670.51E-03
			-12.00		672.04E-03
			-9.00		672.34E-03
			-6.00		669.67E-03
			0.00		668.85E-03
			6.00		672.94E-03
			9.00		672.44E-03
			12.00		670.95E-03
			15.00		668.61E-03
			18.00		664.44E-03
			21.00		664.21E-03
			24.00		661.17E-03
			27.00		662.53E-03
			30.00		658.02E-03
			33.00		656.36E-03
			36.00		653.99E-03
			39.00		642.66E-03
			42.00		630.76E-03
			45.00		597.35E-03
			48.00		433.71E-03
			51.00		190.41E-03
			54.00		99.560E-03
			57.00		70.484E-03
			60.00		57.192E-03
			63.00		49.178E-03
			66.00		43.931E-03
			69.00		39.268E-03
			72.00		35.258E-03
			75.00		32.109E-03
			78.00		28.740E-03
			81.00		26.574E-03
			84.00		24.765E-03
			87.00		22.887E-03
			90.00		21.401E-03
			93.00		19.911E-03
			96.00		18.468E-03
			99.00		17.224E-03
			102.00		15.084E-03
			105.00		14.263E-03
			108.00		13.690E-03
			111.00		12.961E-03
			114.00		11.921E-03
			117.00		11.086E-03
			120.00		10.624E-03
			123.00		9.7398E-03
			126.00		9.0187E-03
		END_DATA
	END_SCAN  11
	BEGIN_SCAN  12
		TASK_NAME=MODE_INTERVAL
		PROGRAM=BeamAdjust 1.2
		MEAS_DATE=07-Oct-2010 13:44:29
		LINAC=A4
		MODALITY=X
		INPLANE_AXIS_DIR=TARGET_GUN
		CROSSPLANE_AXIS_DIR=LEFT_RIGHT
		DEPTH_AXIS_DIR=UP_DOWN
		ENERGY=6.00
		SSD=950.00
		WEDGE=None
		FIELD_INPLANE=100.00
		FIELD_CROSSPLANE=100.00
		FIELD_TYPE=RECTANGULAR
		GANTRY=0.00
		GANTRY_UPRIGHT_POSITION=0
		GANTRY_ROTATION=CW
		COLL_ANGLE=90.00
		COLL_OFFSET_INPLANE=0.00
		COLL_OFFSET_CROSSPLANE=0.00
		SCAN_DEVICE=STARCHECK
		ELECTROMETER=2D_ARRAY_INTERFACE
		DETECTOR=STARCHECK
		SCAN_CURVETYPE=INPLANE_PROFILE
		SCAN_DEPTH=0.00
		SCAN_OFFAXIS_CROSSPLANE=50.00
		SCAN_ANGLE=0.00
		SCAN_DIAGONAL=NOT_DIAGONAL
		MEAS_PRESET=TIME_PRESET
		MEAS_TIME=10.000
		MEAS_UNIT=GY
		PRESSURE=1013.25
		TEMPERATURE=20.00
		NORM_TEMPERATURE=20.00
		CORRECTION_FACTOR=1.0000
		CORRECTIONS=AIR_DENSITY_CORR;
		BEGIN_DATA
			-30.00		634.87E-03
			-15.00		640.08E-03
			15.00		636.87E-03
			30.00		633.84E-03
		END_DATA
	END_SCAN  12
	BEGIN_SCAN  13
		TASK_NAME=MODE_INTERVAL
		PROGRAM=BeamAdjust 1.2
		MEAS_DATE=07-Oct-2010 13:44:29
		LINAC=A4
		MODALITY=X
		INPLANE_AXIS_DIR=TARGET_GUN
		CROSSPLANE_AXIS_DIR=LEFT_RIGHT
		DEPTH_AXIS_DIR=UP_DOWN
		ENERGY=6.00
		SSD=950.00
		WEDGE=None
		FIELD_INPLANE=100.00
		FIELD_CROSSPLANE=100.00
		FIELD_TYPE=RECTANGULAR
		GANTRY=0.00
		GANTRY_UPRIGHT_POSITION=0
		GANTRY_ROTATION=CW
		COLL_ANGLE=90.00
		COLL_OFFSET_INPLANE=0.00
		COLL_OFFSET_CROSSPLANE=0.00
		SCAN_DEVICE=STARCHECK
		ELECTROMETER=2D_ARRAY_INTERFACE
		DETECTOR=STARCHECK
		SCAN_CURVETYPE=INPLANE_PROFILE
		SCAN_DEPTH=0.00
		SCAN_OFFAXIS_CROSSPLANE=100.00
		SCAN_ANGLE=0.00
		SCAN_DIAGONAL=NOT_DIAGONAL
		MEAS_PRESET=TIME_PRESET
		MEAS_TIME=10.000
		MEAS_UNIT=GY
		PRESSURE=1013.25
		TEMPERATURE=20.00
		NORM_TEMPERATURE=20.00
		CORRECTION_FACTOR=1.0000
		CORRECTIONS=AIR_DENSITY_CORR;
		BEGIN_DATA
			-60.00		9.4655E-03
			-30.00		12.032E-03
			30.00		11.971E-03
			60.00		8.8302E-03
		END_DATA
	END_SCAN  13
	BEGIN_SCAN  14
		TASK_NAME=MODE_INTERVAL
		PROGRAM=BeamAdjust 1.2
		MEAS_DATE=07-Oct-2010 13:44:29
		LINAC=A4
		MODALITY=X
		INPLANE_AXIS_DIR=TARGET_GUN
		CROSSPLANE_AXIS_DIR=LEFT_RIGHT
		DEPTH_AXIS_DIR=UP_DOWN
		ENERGY=6.00
		SSD=950.00
		WEDGE=None
		FIELD_INPLANE=100.00
		FIELD_CROSSPLANE=100.00
		FIELD_TYPE=RECTANGULAR
		GANTRY=0.00
		GANTRY_UPRIGHT_POSITION=0
		GANTRY_ROTATION=CW
		COLL_ANGLE=90.00
		COLL_OFFSET_INPLANE=0.00
		COLL_OFFSET_CROSSPLANE=0.00
		SCAN_DEVICE=STARCHECK
		ELECTROMETER=2D_ARRAY_INTERFACE
		DETECTOR=STARCHECK
		SCAN_CURVETYPE=INPLANE_PROFILE
		SCAN_DEPTH=0.00
		SCAN_OFFAXIS_CROSSPLANE=130.00
		SCAN_ANGLE=0.00
		SCAN_DIAGONAL=NOT_DIAGONAL
		MEAS_PRESET=TIME_PRESET
		MEAS_TIME=10.000
		MEAS_UNIT=GY
		PRESSURE=1013.25
		TEMPERATURE=20.00
		NORM_TEMPERATURE=20.00
		CORRECTION_FACTOR=1.0000
		CORRECTIONS=AIR_DENSITY_CORR;
		BEGIN_DATA
			-130.00		2.2067E-03
			-125.00		3.0256E-03
			-120.00		2.6264E-03
			-115.00		3.0235E-03
			-110.00		3.1336E-03
			-105.00		3.4430E-03
			-100.00		3.4399E-03
			-95.00		3.4518E-03
			-90.00		3.3233E-03
			-85.00		4.2471E-03
			-80.00		4.0530E-03
			-75.00		4.9872E-03
			-70.00		4.9463E-03
			-65.00		4.7007E-03
			-60.00		5.5930E-03
			-55.00		4.9894E-03
			-50.00		5.0889E-03
			-45.00		5.8321E-03
			-40.00		5.6441E-03
			-35.00		6.3467E-03
			-30.00		6.3402E-03
			-25.00		6.1144E-03
			-20.00		6.2662E-03
			-15.00		6.1400E-03
			-10.00		5.6907E-03
			-5.00		6.9630E-03
			0.00		7.2031E-03
			5.00		6.5056E-03
			10.00		6.4523E-03
			15.00		6.0739E-03
			20.00		6.3176E-03
			25.00		6.4029E-03
			30.00		5.3979E-03
			35.00		5.7749E-03
			40.00		5.9285E-03
			45.00		5.6750E-03
			50.00		5.3604E-03
			55.00		5.5829E-03
			60.00		5.2700E-03
			65.00		4.8075E-03
			70.00		4.3468E-03
			75.00		4.7560E-03
			80.00		4.2245E-03
			85.00		4.2029E-03
			90.00		3.7185E-03
			95.00		3.7675E-03
			100.00		3.7858E-03
			105.00		3.1934E-03
			110.00		3.2177E-03
			115.00		2.8434E-03
			120.00		2.8377E-03
			125.00		2.6547E-03
			130.00		2.7099E-03
		END_DATA
	END_SCAN  14
	BEGIN_SCAN  15
		TASK_NAME=MODE_INTERVAL
		PROGRAM=BeamAdjust 1.2
		MEAS_DATE=07-Oct-2010 13:44:29
		LINAC=A4
		MODALITY=X
		INPLANE_AXIS_DIR=TARGET_GUN
		CROSSPLANE_AXIS_DIR=LEFT_RIGHT
		DEPTH_AXIS_DIR=UP_DOWN
		ENERGY=6.00
		SSD=950.00
		WEDGE=None
		FIELD_INPLANE=100.00
		FIELD_CROSSPLANE=100.00
		FIELD_TYPE=RECTANGULAR
		GANTRY=0.00
		GANTRY_UPRIGHT_POSITION=0
		GANTRY_ROTATION=CW
		COLL_ANGLE=90.00
		COLL_OFFSET_INPLANE=0.00
		COLL_OFFSET_CROSSPLANE=0.00
		SCAN_DEVICE=STARCHECK
		ELECTROMETER=2D_ARRAY_INTERFACE
		DETECTOR=STARCHECK
		SCAN_CURVETYPE=INPLANE_PROFILE
		SCAN_DEPTH=0.00
		SCAN_OFFAXIS_CROSSPLANE=0.00
		SCAN_ANGLE=0.00
		SCAN_DIAGONAL=FIRST_DIAGONAL
		MEAS_PRESET=TIME_PRESET
		MEAS_TIME=10.000
		MEAS_UNIT=GY
		PRESSURE=1013.25
		TEMPERATURE=20.00
		NORM_TEMPERATURE=20.00
		CORRECTION_FACTOR=1.0000
		CORRECTIONS=AIR_DENSITY_CORR;
		BEGIN_DATA
			-172.40		2.7053E-03
			-169.40		3.3022E-03
			-166.40		3.8620E-03
			-163.40		3.5867E-03
			-160.40		4.0654E-03
			-157.40		3.6609E-03
			-154.40		3.7412E-03
			-151.40		4.0298E-03
			-148.40		4.2270E-03
			-145.40		4.8680E-03
			-142.40		5.4564E-03
			-139.40		5.7609E-03
			-136.40		5.7429E-03
			-133.40		6.3541E-03
			-130.40		7.1826E-03
			-127.40		7.3956E-03
			-124.40		7.6600E-03
			-121.40		8.5673E-03
			-118.40		8.8474E-03
			-115.40		9.8316E-03
			-112.40		10.333E-03
			-109.40		11.621E-03
			-106.40		12.367E-03
			-103.40		12.889E-03
			-100.40		14.011E-03
			-97.40		16.194E-03
			-94.40		17.361E-03
			-91.40		19.143E-03
			-88.40		21.726E-03
			-85.40		23.794E-03
			-82.40		26.711E-03
			-79.40		30.243E-03
			-76.40		34.609E-03
			-73.40		44.195E-03
			-70.40		64.708E-03
			-67.40		134.66E-03
			-64.40		289.86E-03
			-61.40		451.48E-03
			-58.40		565.21E-03
			-55.40		611.49E-03
			-52.40		630.84E-03
			-49.40		641.18E-03
			-46.40		646.37E-03
			-43.40		650.06E-03
			-40.40		653.81E-03
			-37.40		659.22E-03
			-34.40		659.03E-03
			-31.40		661.66E-03
			-28.40		660.97E-03
			-25.40		664.16E-03
			-22.40		664.44E-03
			-19.40		663.95E-03
			-16.40		667.48E-03
			-13.40		670.57E-03
			0.00		668.85E-03
			13.40		674.40E-03
			16.40		670.01E-03
			19.40		669.19E-03
			22.40		667.40E-03
			25.40		666.34E-03
			28.40		665.54E-03
			31.40		663.37E-03
			34.40		660.41E-03
			37.40		663.22E-03
			40.40		660.65E-03
			43.40		658.10E-03
			46.40		656.70E-03
			49.40		651.61E-03
			52.40		646.87E-03
			55.40		637.69E-03
			58.40		626.66E-03
			61.40		601.81E-03
			64.40		531.50E-03
			67.40		406.42E-03
			70.40		249.93E-03
			73.40		129.65E-03
			76.40		68.353E-03
			79.40		47.069E-03
			82.40		37.128E-03
			85.40		31.550E-03
			88.40		28.085E-03
			91.40		24.532E-03
			94.40		22.031E-03
			97.40		19.993E-03
			100.40		18.282E-03
			103.40		17.339E-03
			106.40		15.411E-03
			109.40		14.020E-03
			112.40		11.948E-03
			115.40		11.256E-03
			118.40		10.101E-03
			121.40		9.7494E-03
			124.40		9.0457E-03
			127.40		8.4998E-03
			130.40		8.0696E-03
			133.40		7.1157E-03
			136.40		6.0070E-03
			139.40		5.8341E-03
			142.40		5.8204E-03
			145.40		6.1280E-03
			148.40		5.7067E-03
			151.40		4.9308E-03
			154.40		4.7889E-03
			157.40		4.5245E-03
			160.40		3.4071E-03
			163.40		3.3375E-03
			166.40		3.6798E-03
			169.40		3.2221E-03
			172.40		3.6145E-03
		END_DATA
	END_SCAN  15
	BEGIN_SCAN  16
		TASK_NAME=MODE_INTERVAL
		PROGRAM=BeamAdjust 1.2
		MEAS_DATE=07-Oct-2010 13:44:29
		LINAC=A4
		MODALITY=X
		INPLANE_AXIS_DIR=GUN_TARGET
		CROSSPLANE_AXIS_DIR=LEFT_RIGHT
		DEPTH_AXIS_DIR=UP_DOWN
		ENERGY=6.00
		SSD=950.00
		WEDGE=None
		FIELD_INPLANE=100.00
		FIELD_CROSSPLANE=100.00
		FIELD_TYPE=RECTANGULAR
		GANTRY=0.00
		GANTRY_UPRIGHT_POSITION=0
		GANTRY_ROTATION=CW
		COLL_ANGLE=90.00
		COLL_OFFSET_INPLANE=0.00
		COLL_OFFSET_CROSSPLANE=0.00
		SCAN_DEVICE=STARCHECK
		ELECTROMETER=2D_ARRAY_INTERFACE
		DETECTOR=STARCHECK
		SCAN_CURVETYPE=INPLANE_PROFILE
		SCAN_DEPTH=0.00
		SCAN_OFFAXIS_CROSSPLANE=0.00
		SCAN_ANGLE=0.00
		SCAN_DIAGONAL=SECOND_DIAGONAL
		MEAS_PRESET=TIME_PRESET
		MEAS_TIME=10.000
		MEAS_UNIT=GY
		PRESSURE=1013.25
		TEMPERATURE=20.00
		NORM_TEMPERATURE=20.00
		CORRECTION_FACTOR=1.0000
		CORRECTIONS=AIR_DENSITY_CORR;
		BEGIN_DATA
			-172.40		3.4436E-03
			-169.40		3.5563E-03
			-166.40		3.3897E-03
			-163.40		3.8318E-03
			-160.40		4.0414E-03
			-157.40		4.2806E-03
			-154.40		4.5697E-03
			-151.40		5.1576E-03
			-148.40		5.4290E-03
			-145.40		5.4022E-03
			-142.40		6.3056E-03
			-139.40		6.3406E-03
			-136.40		6.9813E-03
			-133.40		7.3985E-03
			-130.40		7.8166E-03
			-127.40		8.8282E-03
			-124.40		9.3222E-03
			-121.40		10.059E-03
			-118.40		10.970E-03
			-115.40		11.518E-03
			-112.40		12.332E-03
			-109.40		13.634E-03
			-106.40		15.363E-03
			-103.40		16.561E-03
			-100.40		18.378E-03
			-97.40		19.960E-03
			-94.40		22.875E-03
			-91.40		25.094E-03
			-88.40		27.808E-03
			-85.40		32.693E-03
			-82.40		39.424E-03
			-79.40		52.258E-03
			-76.40		88.385E-03
			-73.40		204.76E-03
			-70.40		376.83E-03
			-67.40		520.32E-03
			-64.40		596.63E-03
			-61.40		626.79E-03
			-58.40		642.04E-03
			-55.40		648.29E-03
			-52.40		656.92E-03
			-49.40		659.66E-03
			-46.40		661.51E-03
			-43.40		664.43E-03
			-40.40		666.43E-03
			-37.40		668.90E-03
			-34.40		668.00E-03
			-31.40		668.61E-03
			-28.40		670.62E-03
			-25.40		669.18E-03
			-22.40		668.00E-03
			-19.40		672.40E-03
			-16.40		673.04E-03
			-13.40		674.82E-03
			0.00		668.85E-03
			13.40		670.37E-03
			16.40		667.77E-03
			19.40		665.50E-03
			22.40		662.40E-03
			25.40		661.77E-03
			28.40		660.49E-03
			31.40		658.39E-03
			34.40		654.73E-03
			37.40		653.82E-03
			40.40		652.04E-03
			43.40		648.31E-03
			46.40		644.58E-03
			49.40		637.83E-03
			52.40		623.57E-03
			55.40		600.71E-03
			58.40		546.03E-03
			61.40		413.57E-03
			64.40		231.32E-03
			67.40		95.797E-03
			70.40		54.727E-03
			73.40		40.461E-03
			76.40		32.870E-03
			79.40		28.457E-03
			82.40		25.887E-03
			85.40		23.330E-03
			88.40		20.604E-03
			91.40		18.964E-03
			94.40		17.556E-03
			97.40		15.407E-03
			100.40		13.818E-03
			103.40		12.728E-03
			106.40		12.083E-03
			109.40		11.086E-03
			112.40		10.202E-03
			115.40		9.5664E-03
			118.40		8.4225E-03
			121.40		7.9912E-03
			124.40		7.2195E-03
			127.40		6.6789E-03
			130.40		6.9083E-03
			133.40		6.3686E-03
			136.40		6.2287E-03
			139.40		5.6395E-03
			142.40		5.3531E-03
			145.40		5.1477E-03
			148.40		4.5238E-03
			151.40		4.4703E-03
			154.40		4.1670E-03
			157.40		4.0831E-03
			160.40		3.8912E-03
			163.40		3.9860E-03
			166.40		3.7214E-03
			169.40		2.7320E-03
			172.40		2.7629E-03
		END_DATA
	END_SCAN  16
END_SCAN_DATA
