BEGIN_SCAN_DATA
	FORMAT=CC-Export V1.9                  
	FILE_CREATION_DATE=07-Oct-2010 13:43:56
	LAST_MODIFIED=07-Oct-2010 13:43:56
	BEGIN_SCAN  1
		TASK_NAME=MODE_INTERVAL
		PROGRAM=BeamAdjust 1.2
		MEAS_DATE=07-Oct-2010 13:43:56
		LINAC=A4
		MODALITY=X
		INPLANE_AXIS_DIR=TARGET_GUN
		CROSSPLANE_AXIS_DIR=LEFT_RIGHT
		DEPTH_AXIS_DIR=UP_DOWN
		ENERGY=6.00
		SSD=950.00
		WEDGE=None
		FIELD_INPLANE=100.00
		FIELD_CROSSPLANE=100.00
		FIELD_TYPE=RECTANGULAR
		GANTRY=0.00
		GANTRY_UPRIGHT_POSITION=0
		GANTRY_ROTATION=CW
		COLL_ANGLE=90.00
		COLL_OFFSET_INPLANE=0.00
		COLL_OFFSET_CROSSPLANE=0.00
		SCAN_DEVICE=STARCHECK
		ELECTROMETER=2D_ARRAY_INTERFACE
		DETECTOR=STARCHECK
		SCAN_CURVETYPE=CROSSPLANE_PROFILE
		SCAN_DEPTH=0.00
		SCAN_OFFAXIS_INPLANE=-130.00
		SCAN_ANGLE=0.00
		SCAN_DIAGONAL=NOT_DIAGONAL
		MEAS_PRESET=TIME_PRESET
		MEAS_TIME=10.000
		MEAS_UNIT=GY
		PRESSURE=1013.25
		TEMPERATURE=20.00
		NORM_TEMPERATURE=20.00
		CORRECTION_FACTOR=1.0000
		CORRECTIONS=AIR_DENSITY_CORR;
		BEGIN_DATA
			-130.00		2.1376E-03
			-80.00		3.9789E-03
			-40.00		6.6583E-03
			40.00		7.1117E-03
			80.00		4.1903E-03
			130.00		2.3070E-03
		END_DATA
	END_SCAN  1
	BEGIN_SCAN  2
		TASK_NAME=MODE_INTERVAL
		PROGRAM=BeamAdjust 1.2
		MEAS_DATE=07-Oct-2010 13:43:56
		LINAC=A4
		MODALITY=X
		INPLANE_AXIS_DIR=TARGET_GUN
		CROSSPLANE_AXIS_DIR=LEFT_RIGHT
		DEPTH_AXIS_DIR=UP_DOWN
		ENERGY=6.00
		SSD=950.00
		WEDGE=None
		FIELD_INPLANE=100.00
		FIELD_CROSSPLANE=100.00
		FIELD_TYPE=RECTANGULAR
		GANTRY=0.00
		GANTRY_UPRIGHT_POSITION=0
		GANTRY_ROTATION=CW
		COLL_ANGLE=90.00
		COLL_OFFSET_INPLANE=0.00
		COLL_OFFSET_CROSSPLANE=0.00
		SCAN_DEVICE=STARCHECK
		ELECTROMETER=2D_ARRAY_INTERFACE
		DETECTOR=STARCHECK
		SCAN_CURVETYPE=CROSSPLANE_PROFILE
		SCAN_DEPTH=0.00
		SCAN_OFFAXIS_INPLANE=-100.00
		SCAN_ANGLE=0.00
		SCAN_DIAGONAL=NOT_DIAGONAL
		MEAS_PRESET=TIME_PRESET
		MEAS_TIME=10.000
		MEAS_UNIT=GY
		PRESSURE=1013.25
		TEMPERATURE=20.00
		NORM_TEMPERATURE=20.00
		CORRECTION_FACTOR=1.0000
		CORRECTIONS=AIR_DENSITY_CORR;
		BEGIN_DATA
			-60.00		9.5624E-03
			-30.00		13.840E-03
			30.00		15.341E-03
			60.00		11.454E-03
		END_DATA
	END_SCAN  2
	BEGIN_SCAN  3
		TASK_NAME=MODE_INTERVAL
		PROGRAM=BeamAdjust 1.2
		MEAS_DATE=07-Oct-2010 13:43:56
		LINAC=A4
		MODALITY=X
		INPLANE_AXIS_DIR=TARGET_GUN
		CROSSPLANE_AXIS_DIR=LEFT_RIGHT
		DEPTH_AXIS_DIR=UP_DOWN
		ENERGY=6.00
		SSD=950.00
		WEDGE=None
		FIELD_INPLANE=100.00
		FIELD_CROSSPLANE=100.00
		FIELD_TYPE=RECTANGULAR
		GANTRY=0.00
		GANTRY_UPRIGHT_POSITION=0
		GANTRY_ROTATION=CW
		COLL_ANGLE=90.00
		COLL_OFFSET_INPLANE=0.00
		COLL_OFFSET_CROSSPLANE=0.00
		SCAN_DEVICE=STARCHECK
		ELECTROMETER=2D_ARRAY_INTERFACE
		DETECTOR=STARCHECK
		SCAN_CURVETYPE=CROSSPLANE_PROFILE
		SCAN_DEPTH=0.00
		SCAN_OFFAXIS_INPLANE=-50.00
		SCAN_ANGLE=0.00
		SCAN_DIAGONAL=NOT_DIAGONAL
		MEAS_PRESET=TIME_PRESET
		MEAS_TIME=10.000
		MEAS_UNIT=GY
		PRESSURE=1013.25
		TEMPERATURE=20.00
		NORM_TEMPERATURE=20.00
		CORRECTION_FACTOR=1.0000
		CORRECTIONS=AIR_DENSITY_CORR;
		BEGIN_DATA
			-30.00		384.02E-03
			-15.00		379.10E-03
			15.00		393.55E-03
			30.00		391.08E-03
		END_DATA
	END_SCAN  3
	BEGIN_SCAN  4
		TASK_NAME=MODE_INTERVAL
		PROGRAM=BeamAdjust 1.2
		MEAS_DATE=07-Oct-2010 13:43:56
		LINAC=A4
		MODALITY=X
		INPLANE_AXIS_DIR=TARGET_GUN
		CROSSPLANE_AXIS_DIR=LEFT_RIGHT
		DEPTH_AXIS_DIR=UP_DOWN
		ENERGY=6.00
		SSD=950.00
		WEDGE=None
		FIELD_INPLANE=100.00
		FIELD_CROSSPLANE=100.00
		FIELD_TYPE=RECTANGULAR
		GANTRY=0.00
		GANTRY_UPRIGHT_POSITION=0
		GANTRY_ROTATION=CW
		COLL_ANGLE=90.00
		COLL_OFFSET_INPLANE=0.00
		COLL_OFFSET_CROSSPLANE=0.00
		SCAN_DEVICE=STARCHECK
		ELECTROMETER=2D_ARRAY_INTERFACE
		DETECTOR=STARCHECK
		SCAN_CURVETYPE=CROSSPLANE_PROFILE
		SCAN_DEPTH=0.00
		SCAN_OFFAXIS_INPLANE=0.00
		SCAN_ANGLE=0.00
		SCAN_DIAGONAL=NOT_DIAGONAL
		MEAS_PRESET=TIME_PRESET
		MEAS_TIME=10.000
		MEAS_UNIT=GY
		PRESSURE=1013.25
		TEMPERATURE=20.00
		NORM_TEMPERATURE=20.00
		CORRECTION_FACTOR=1.0000
		CORRECTIONS=AIR_DENSITY_CORR;
		BEGIN_DATA
			-126.00		6.1768E-03
			-123.00		7.2203E-03
			-120.00		7.2922E-03
			-117.00		7.9196E-03
			-114.00		7.9101E-03
			-111.00		8.5436E-03
			-108.00		9.5543E-03
			-105.00		10.336E-03
			-102.00		10.623E-03
			-99.00		11.388E-03
			-96.00		11.935E-03
			-93.00		13.713E-03
			-90.00		15.103E-03
			-87.00		15.626E-03
			-84.00		17.265E-03
			-81.00		18.294E-03
			-78.00		20.259E-03
			-75.00		22.520E-03
			-72.00		24.616E-03
			-69.00		27.361E-03
			-66.00		30.914E-03
			-63.00		34.383E-03
			-60.00		39.359E-03
			-57.00		45.967E-03
			-54.00		55.552E-03
			-51.00		74.917E-03
			-48.00		121.61E-03
			-45.00		313.62E-03
			-42.00		560.54E-03
			-39.00		620.11E-03
			-36.00		639.89E-03
			-33.00		645.35E-03
			-30.00		650.38E-03
			-27.00		654.31E-03
			-24.00		657.98E-03
			-21.00		657.80E-03
			-18.00		663.42E-03
			-15.00		663.18E-03
			-12.00		663.40E-03
			-9.00		667.86E-03
			-6.00		668.49E-03
			0.00		666.52E-03
			6.00		668.23E-03
			9.00		667.64E-03
			12.00		666.25E-03
			15.00		667.35E-03
			18.00		667.20E-03
			21.00		665.25E-03
			24.00		661.38E-03
			27.00		665.37E-03
			30.00		664.32E-03
			33.00		663.22E-03
			36.00		661.95E-03
			39.00		659.88E-03
			42.00		655.88E-03
			45.00		649.25E-03
			48.00		636.91E-03
			51.00		609.15E-03
			54.00		509.96E-03
			57.00		212.16E-03
			60.00		97.611E-03
			63.00		66.772E-03
			66.00		51.943E-03
			69.00		43.674E-03
			72.00		37.932E-03
			75.00		33.171E-03
			78.00		29.258E-03
			81.00		26.114E-03
			84.00		24.256E-03
			87.00		21.498E-03
			90.00		19.915E-03
			93.00		17.851E-03
			96.00		15.747E-03
			99.00		14.986E-03
			102.00		13.650E-03
			105.00		12.746E-03
			108.00		11.802E-03
			111.00		10.575E-03
			114.00		10.020E-03
			117.00		9.5546E-03
			120.00		8.3870E-03
			123.00		8.1716E-03
			126.00		8.3480E-03
		END_DATA
	END_SCAN  4
	BEGIN_SCAN  5
		TASK_NAME=MODE_INTERVAL
		PROGRAM=BeamAdjust 1.2
		MEAS_DATE=07-Oct-2010 13:43:56
		LINAC=A4
		MODALITY=X
		INPLANE_AXIS_DIR=TARGET_GUN
		CROSSPLANE_AXIS_DIR=LEFT_RIGHT
		DEPTH_AXIS_DIR=UP_DOWN
		ENERGY=6.00
		SSD=950.00
		WEDGE=None
		FIELD_INPLANE=100.00
		FIELD_CROSSPLANE=100.00
		FIELD_TYPE=RECTANGULAR
		GANTRY=0.00
		GANTRY_UPRIGHT_POSITION=0
		GANTRY_ROTATION=CW
		COLL_ANGLE=90.00
		COLL_OFFSET_INPLANE=0.00
		COLL_OFFSET_CROSSPLANE=0.00
		SCAN_DEVICE=STARCHECK
		ELECTROMETER=2D_ARRAY_INTERFACE
		DETECTOR=STARCHECK
		SCAN_CURVETYPE=CROSSPLANE_PROFILE
		SCAN_DEPTH=0.00
		SCAN_OFFAXIS_INPLANE=50.00
		SCAN_ANGLE=0.00
		SCAN_DIAGONAL=NOT_DIAGONAL
		MEAS_PRESET=TIME_PRESET
		MEAS_TIME=10.000
		MEAS_UNIT=GY
		PRESSURE=1013.25
		TEMPERATURE=20.00
		NORM_TEMPERATURE=20.00
		CORRECTION_FACTOR=1.0000
		CORRECTIONS=AIR_DENSITY_CORR;
		BEGIN_DATA
			-30.00		260.27E-03
			-15.00		279.60E-03
			15.00		268.57E-03
			30.00		252.71E-03
		END_DATA
	END_SCAN  5
	BEGIN_SCAN  6
		TASK_NAME=MODE_INTERVAL
		PROGRAM=BeamAdjust 1.2
		MEAS_DATE=07-Oct-2010 13:43:56
		LINAC=A4
		MODALITY=X
		INPLANE_AXIS_DIR=TARGET_GUN
		CROSSPLANE_AXIS_DIR=LEFT_RIGHT
		DEPTH_AXIS_DIR=UP_DOWN
		ENERGY=6.00
		SSD=950.00
		WEDGE=None
		FIELD_INPLANE=100.00
		FIELD_CROSSPLANE=100.00
		FIELD_TYPE=RECTANGULAR
		GANTRY=0.00
		GANTRY_UPRIGHT_POSITION=0
		GANTRY_ROTATION=CW
		COLL_ANGLE=90.00
		COLL_OFFSET_INPLANE=0.00
		COLL_OFFSET_CROSSPLANE=0.00
		SCAN_DEVICE=STARCHECK
		ELECTROMETER=2D_ARRAY_INTERFACE
		DETECTOR=STARCHECK
		SCAN_CURVETYPE=CROSSPLANE_PROFILE
		SCAN_DEPTH=0.00
		SCAN_OFFAXIS_INPLANE=100.00
		SCAN_ANGLE=0.00
		SCAN_DIAGONAL=NOT_DIAGONAL
		MEAS_PRESET=TIME_PRESET
		MEAS_TIME=10.000
		MEAS_UNIT=GY
		PRESSURE=1013.25
		TEMPERATURE=20.00
		NORM_TEMPERATURE=20.00
		CORRECTION_FACTOR=1.0000
		CORRECTIONS=AIR_DENSITY_CORR;
		BEGIN_DATA
			-60.00		9.6094E-03
			-30.00		14.129E-03
			30.00		14.890E-03
			60.00		10.223E-03
		END_DATA
	END_SCAN  6
	BEGIN_SCAN  7
		TASK_NAME=MODE_INTERVAL
		PROGRAM=BeamAdjust 1.2
		MEAS_DATE=07-Oct-2010 13:43:56
		LINAC=A4
		MODALITY=X
		INPLANE_AXIS_DIR=TARGET_GUN
		CROSSPLANE_AXIS_DIR=LEFT_RIGHT
		DEPTH_AXIS_DIR=UP_DOWN
		ENERGY=6.00
		SSD=950.00
		WEDGE=None
		FIELD_INPLANE=100.00
		FIELD_CROSSPLANE=100.00
		FIELD_TYPE=RECTANGULAR
		GANTRY=0.00
		GANTRY_UPRIGHT_POSITION=0
		GANTRY_ROTATION=CW
		COLL_ANGLE=90.00
		COLL_OFFSET_INPLANE=0.00
		COLL_OFFSET_CROSSPLANE=0.00
		SCAN_DEVICE=STARCHECK
		ELECTROMETER=2D_ARRAY_INTERFACE
		DETECTOR=STARCHECK
		SCAN_CURVETYPE=CROSSPLANE_PROFILE
		SCAN_DEPTH=0.00
		SCAN_OFFAXIS_INPLANE=130.00
		SCAN_ANGLE=0.00
		SCAN_DIAGONAL=NOT_DIAGONAL
		MEAS_PRESET=TIME_PRESET
		MEAS_TIME=10.000
		MEAS_UNIT=GY
		PRESSURE=1013.25
		TEMPERATURE=20.00
		NORM_TEMPERATURE=20.00
		CORRECTION_FACTOR=1.0000
		CORRECTIONS=AIR_DENSITY_CORR;
		BEGIN_DATA
			-130.00		1.9233E-03
			-80.00		4.0958E-03
			-40.00		7.1999E-03
			40.00		7.3614E-03
			80.00		4.7097E-03
			130.00		2.6803E-03
		END_DATA
	END_SCAN  7
	BEGIN_SCAN  8
		TASK_NAME=MODE_INTERVAL
		PROGRAM=BeamAdjust 1.2
		MEAS_DATE=07-Oct-2010 13:43:56
		LINAC=A4
		MODALITY=X
		INPLANE_AXIS_DIR=TARGET_GUN
		CROSSPLANE_AXIS_DIR=LEFT_RIGHT
		DEPTH_AXIS_DIR=UP_DOWN
		ENERGY=6.00
		SSD=950.00
		WEDGE=None
		FIELD_INPLANE=100.00
		FIELD_CROSSPLANE=100.00
		FIELD_TYPE=RECTANGULAR
		GANTRY=0.00
		GANTRY_UPRIGHT_POSITION=0
		GANTRY_ROTATION=CW
		COLL_ANGLE=90.00
		COLL_OFFSET_INPLANE=0.00
		COLL_OFFSET_CROSSPLANE=0.00
		SCAN_DEVICE=STARCHECK
		ELECTROMETER=2D_ARRAY_INTERFACE
		DETECTOR=STARCHECK
		SCAN_CURVETYPE=INPLANE_PROFILE
		SCAN_DEPTH=0.00
		SCAN_OFFAXIS_CROSSPLANE=-130.00
		SCAN_ANGLE=0.00
		SCAN_DIAGONAL=NOT_DIAGONAL
		MEAS_PRESET=TIME_PRESET
		MEAS_TIME=10.000
		MEAS_UNIT=GY
		PRESSURE=1013.25
		TEMPERATURE=20.00
		NORM_TEMPERATURE=20.00
		CORRECTION_FACTOR=1.0000
		CORRECTIONS=AIR_DENSITY_CORR;
		BEGIN_DATA
			-130.00		2.1376E-03
			-125.00		2.1658E-03
			-120.00		2.7154E-03
			-115.00		3.3140E-03
			-110.00		3.3310E-03
			-105.00		3.5666E-03
			-100.00		3.5409E-03
			-95.00		4.4570E-03
			-90.00		3.9050E-03
			-85.00		4.2701E-03
			-80.00		3.8484E-03
			-75.00		4.5077E-03
			-70.00		4.2329E-03
			-65.00		4.9369E-03
			-60.00		4.9599E-03
			-55.00		5.5180E-03
			-50.00		3.8610E-03
			-45.00		4.1193E-03
			-40.00		4.5637E-03
			-35.00		5.1408E-03
			-30.00		5.3847E-03
			-25.00		5.3863E-03
			-20.00		5.0899E-03
			-15.00		4.3850E-03
			-10.00		4.8303E-03
			-5.00		5.6150E-03
			0.00		5.6346E-03
			5.00		6.0659E-03
			10.00		5.4818E-03
			15.00		5.4321E-03
			20.00		5.5888E-03
			25.00		4.8216E-03
			30.00		5.2766E-03
			35.00		4.9920E-03
			40.00		4.7110E-03
			45.00		4.6373E-03
			50.00		4.5207E-03
			55.00		4.4467E-03
			60.00		4.8210E-03
			65.00		3.7825E-03
			70.00		3.6700E-03
			75.00		3.6343E-03
			80.00		3.8880E-03
			85.00		3.7034E-03
			90.00		3.5902E-03
			95.00		3.0243E-03
			100.00		2.9070E-03
			105.00		2.7118E-03
			110.00		3.2509E-03
			115.00		3.0258E-03
			120.00		2.6434E-03
			125.00		2.3464E-03
			130.00		1.9233E-03
		END_DATA
	END_SCAN  8
	BEGIN_SCAN  9
		TASK_NAME=MODE_INTERVAL
		PROGRAM=BeamAdjust 1.2
		MEAS_DATE=07-Oct-2010 13:43:56
		LINAC=A4
		MODALITY=X
		INPLANE_AXIS_DIR=TARGET_GUN
		CROSSPLANE_AXIS_DIR=LEFT_RIGHT
		DEPTH_AXIS_DIR=UP_DOWN
		ENERGY=6.00
		SSD=950.00
		WEDGE=None
		FIELD_INPLANE=100.00
		FIELD_CROSSPLANE=100.00
		FIELD_TYPE=RECTANGULAR
		GANTRY=0.00
		GANTRY_UPRIGHT_POSITION=0
		GANTRY_ROTATION=CW
		COLL_ANGLE=90.00
		COLL_OFFSET_INPLANE=0.00
		COLL_OFFSET_CROSSPLANE=0.00
		SCAN_DEVICE=STARCHECK
		ELECTROMETER=2D_ARRAY_INTERFACE
		DETECTOR=STARCHECK
		SCAN_CURVETYPE=INPLANE_PROFILE
		SCAN_DEPTH=0.00
		SCAN_OFFAXIS_CROSSPLANE=-100.00
		SCAN_ANGLE=0.00
		SCAN_DIAGONAL=NOT_DIAGONAL
		MEAS_PRESET=TIME_PRESET
		MEAS_TIME=10.000
		MEAS_UNIT=GY
		PRESSURE=1013.25
		TEMPERATURE=20.00
		NORM_TEMPERATURE=20.00
		CORRECTION_FACTOR=1.0000
		CORRECTIONS=AIR_DENSITY_CORR;
		BEGIN_DATA
			-60.00		7.8220E-03
			-30.00		9.8977E-03
			30.00		9.2140E-03
			60.00		7.2252E-03
		END_DATA
	END_SCAN  9
	BEGIN_SCAN  10
		TASK_NAME=MODE_INTERVAL
		PROGRAM=BeamAdjust 1.2
		MEAS_DATE=07-Oct-2010 13:43:56
		LINAC=A4
		MODALITY=X
		INPLANE_AXIS_DIR=TARGET_GUN
		CROSSPLANE_AXIS_DIR=LEFT_RIGHT
		DEPTH_AXIS_DIR=UP_DOWN
		ENERGY=6.00
		SSD=950.00
		WEDGE=None
		FIELD_INPLANE=100.00
		FIELD_CROSSPLANE=100.00
		FIELD_TYPE=RECTANGULAR
		GANTRY=0.00
		GANTRY_UPRIGHT_POSITION=0
		GANTRY_ROTATION=CW
		COLL_ANGLE=90.00
		COLL_OFFSET_INPLANE=0.00
		COLL_OFFSET_CROSSPLANE=0.00
		SCAN_DEVICE=STARCHECK
		ELECTROMETER=2D_ARRAY_INTERFACE
		DETECTOR=STARCHECK
		SCAN_CURVETYPE=INPLANE_PROFILE
		SCAN_DEPTH=0.00
		SCAN_OFFAXIS_CROSSPLANE=-50.00
		SCAN_ANGLE=0.00
		SCAN_DIAGONAL=NOT_DIAGONAL
		MEAS_PRESET=TIME_PRESET
		MEAS_TIME=10.000
		MEAS_UNIT=GY
		PRESSURE=1013.25
		TEMPERATURE=20.00
		NORM_TEMPERATURE=20.00
		CORRECTION_FACTOR=1.0000
		CORRECTIONS=AIR_DENSITY_CORR;
		BEGIN_DATA
			-30.00		70.219E-03
			-15.00		72.990E-03
			15.00		71.958E-03
			30.00		66.125E-03
		END_DATA
	END_SCAN  10
	BEGIN_SCAN  11
		TASK_NAME=MODE_INTERVAL
		PROGRAM=BeamAdjust 1.2
		MEAS_DATE=07-Oct-2010 13:43:56
		LINAC=A4
		MODALITY=X
		INPLANE_AXIS_DIR=TARGET_GUN
		CROSSPLANE_AXIS_DIR=LEFT_RIGHT
		DEPTH_AXIS_DIR=UP_DOWN
		ENERGY=6.00
		SSD=950.00
		WEDGE=None
		FIELD_INPLANE=100.00
		FIELD_CROSSPLANE=100.00
		FIELD_TYPE=RECTANGULAR
		GANTRY=0.00
		GANTRY_UPRIGHT_POSITION=0
		GANTRY_ROTATION=CW
		COLL_ANGLE=90.00
		COLL_OFFSET_INPLANE=0.00
		COLL_OFFSET_CROSSPLANE=0.00
		SCAN_DEVICE=STARCHECK
		ELECTROMETER=2D_ARRAY_INTERFACE
		DETECTOR=STARCHECK
		SCAN_CURVETYPE=INPLANE_PROFILE
		SCAN_DEPTH=0.00
		SCAN_OFFAXIS_CROSSPLANE=0.00
		SCAN_ANGLE=0.00
		SCAN_DIAGONAL=NOT_DIAGONAL
		MEAS_PRESET=TIME_PRESET
		MEAS_TIME=10.000
		MEAS_UNIT=GY
		PRESSURE=1013.25
		TEMPERATURE=20.00
		NORM_TEMPERATURE=20.00
		CORRECTION_FACTOR=1.0000
		CORRECTIONS=AIR_DENSITY_CORR;
		BEGIN_DATA
			-126.00		9.2270E-03
			-123.00		9.1576E-03
			-120.00		10.329E-03
			-117.00		11.619E-03
			-114.00		11.957E-03
			-111.00		12.854E-03
			-108.00		13.770E-03
			-105.00		14.755E-03
			-102.00		16.141E-03
			-99.00		16.947E-03
			-96.00		18.094E-03
			-93.00		20.366E-03
			-90.00		22.263E-03
			-87.00		23.666E-03
			-84.00		25.623E-03
			-81.00		28.045E-03
			-78.00		30.607E-03
			-75.00		33.289E-03
			-72.00		36.833E-03
			-69.00		40.659E-03
			-66.00		45.876E-03
			-63.00		52.523E-03
			-60.00		62.536E-03
			-57.00		82.853E-03
			-54.00		134.03E-03
			-51.00		308.53E-03
			-48.00		555.80E-03
			-45.00		621.07E-03
			-42.00		641.15E-03
			-39.00		650.22E-03
			-36.00		655.67E-03
			-33.00		658.77E-03
			-30.00		663.04E-03
			-27.00		664.35E-03
			-24.00		663.37E-03
			-21.00		662.29E-03
			-18.00		668.58E-03
			-15.00		667.38E-03
			-12.00		669.24E-03
			-9.00		670.06E-03
			-6.00		667.71E-03
			0.00		666.52E-03
			6.00		670.59E-03
			9.00		669.32E-03
			12.00		668.38E-03
			15.00		666.36E-03
			18.00		662.51E-03
			21.00		662.51E-03
			24.00		659.13E-03
			27.00		660.52E-03
			30.00		656.19E-03
			33.00		654.39E-03
			36.00		651.94E-03
			39.00		641.04E-03
			42.00		629.12E-03
			45.00		596.31E-03
			48.00		432.45E-03
			51.00		189.47E-03
			54.00		99.088E-03
			57.00		69.877E-03
			60.00		56.874E-03
			63.00		48.706E-03
			66.00		43.942E-03
			69.00		39.075E-03
			72.00		35.527E-03
			75.00		31.840E-03
			78.00		28.573E-03
			81.00		26.442E-03
			84.00		24.632E-03
			87.00		23.257E-03
			90.00		21.436E-03
			93.00		19.446E-03
			96.00		18.245E-03
			99.00		16.670E-03
			102.00		15.510E-03
			105.00		14.164E-03
			108.00		13.819E-03
			111.00		12.362E-03
			114.00		12.014E-03
			117.00		10.844E-03
			120.00		10.494E-03
			123.00		9.9564E-03
			126.00		9.2107E-03
		END_DATA
	END_SCAN  11
	BEGIN_SCAN  12
		TASK_NAME=MODE_INTERVAL
		PROGRAM=BeamAdjust 1.2
		MEAS_DATE=07-Oct-2010 13:43:56
		LINAC=A4
		MODALITY=X
		INPLANE_AXIS_DIR=TARGET_GUN
		CROSSPLANE_AXIS_DIR=LEFT_RIGHT
		DEPTH_AXIS_DIR=UP_DOWN
		ENERGY=6.00
		SSD=950.00
		WEDGE=None
		FIELD_INPLANE=100.00
		FIELD_CROSSPLANE=100.00
		FIELD_TYPE=RECTANGULAR
		GANTRY=0.00
		GANTRY_UPRIGHT_POSITION=0
		GANTRY_ROTATION=CW
		COLL_ANGLE=90.00
		COLL_OFFSET_INPLANE=0.00
		COLL_OFFSET_CROSSPLANE=0.00
		SCAN_DEVICE=STARCHECK
		ELECTROMETER=2D_ARRAY_INTERFACE
		DETECTOR=STARCHECK
		SCAN_CURVETYPE=INPLANE_PROFILE
		SCAN_DEPTH=0.00
		SCAN_OFFAXIS_CROSSPLANE=50.00
		SCAN_ANGLE=0.00
		SCAN_DIAGONAL=NOT_DIAGONAL
		MEAS_PRESET=TIME_PRESET
		MEAS_TIME=10.000
		MEAS_UNIT=GY
		PRESSURE=1013.25
		TEMPERATURE=20.00
		NORM_TEMPERATURE=20.00
		CORRECTION_FACTOR=1.0000
		CORRECTIONS=AIR_DENSITY_CORR;
		BEGIN_DATA
			-30.00		635.18E-03
			-15.00		640.33E-03
			15.00		637.61E-03
			30.00		634.93E-03
		END_DATA
	END_SCAN  12
	BEGIN_SCAN  13
		TASK_NAME=MODE_INTERVAL
		PROGRAM=BeamAdjust 1.2
		MEAS_DATE=07-Oct-2010 13:43:56
		LINAC=A4
		MODALITY=X
		INPLANE_AXIS_DIR=TARGET_GUN
		CROSSPLANE_AXIS_DIR=LEFT_RIGHT
		DEPTH_AXIS_DIR=UP_DOWN
		ENERGY=6.00
		SSD=950.00
		WEDGE=None
		FIELD_INPLANE=100.00
		FIELD_CROSSPLANE=100.00
		FIELD_TYPE=RECTANGULAR
		GANTRY=0.00
		GANTRY_UPRIGHT_POSITION=0
		GANTRY_ROTATION=CW
		COLL_ANGLE=90.00
		COLL_OFFSET_INPLANE=0.00
		COLL_OFFSET_CROSSPLANE=0.00
		SCAN_DEVICE=STARCHECK
		ELECTROMETER=2D_ARRAY_INTERFACE
		DETECTOR=STARCHECK
		SCAN_CURVETYPE=INPLANE_PROFILE
		SCAN_DEPTH=0.00
		SCAN_OFFAXIS_CROSSPLANE=100.00
		SCAN_ANGLE=0.00
		SCAN_DIAGONAL=NOT_DIAGONAL
		MEAS_PRESET=TIME_PRESET
		MEAS_TIME=10.000
		MEAS_UNIT=GY
		PRESSURE=1013.25
		TEMPERATURE=20.00
		NORM_TEMPERATURE=20.00
		CORRECTION_FACTOR=1.0000
		CORRECTIONS=AIR_DENSITY_CORR;
		BEGIN_DATA
			-60.00		9.2633E-03
			-30.00		12.256E-03
			30.00		12.220E-03
			60.00		8.9178E-03
		END_DATA
	END_SCAN  13
	BEGIN_SCAN  14
		TASK_NAME=MODE_INTERVAL
		PROGRAM=BeamAdjust 1.2
		MEAS_DATE=07-Oct-2010 13:43:56
		LINAC=A4
		MODALITY=X
		INPLANE_AXIS_DIR=TARGET_GUN
		CROSSPLANE_AXIS_DIR=LEFT_RIGHT
		DEPTH_AXIS_DIR=UP_DOWN
		ENERGY=6.00
		SSD=950.00
		WEDGE=None
		FIELD_INPLANE=100.00
		FIELD_CROSSPLANE=100.00
		FIELD_TYPE=RECTANGULAR
		GANTRY=0.00
		GANTRY_UPRIGHT_POSITION=0
		GANTRY_ROTATION=CW
		COLL_ANGLE=90.00
		COLL_OFFSET_INPLANE=0.00
		COLL_OFFSET_CROSSPLANE=0.00
		SCAN_DEVICE=STARCHECK
		ELECTROMETER=2D_ARRAY_INTERFACE
		DETECTOR=STARCHECK
		SCAN_CURVETYPE=INPLANE_PROFILE
		SCAN_DEPTH=0.00
		SCAN_OFFAXIS_CROSSPLANE=130.00
		SCAN_ANGLE=0.00
		SCAN_DIAGONAL=NOT_DIAGONAL
		MEAS_PRESET=TIME_PRESET
		MEAS_TIME=10.000
		MEAS_UNIT=GY
		PRESSURE=1013.25
		TEMPERATURE=20.00
		NORM_TEMPERATURE=20.00
		CORRECTION_FACTOR=1.0000
		CORRECTIONS=AIR_DENSITY_CORR;
		BEGIN_DATA
			-130.00		2.3070E-03
			-125.00		2.9767E-03
			-120.00		2.7431E-03
			-115.00		3.1376E-03
			-110.00		3.1843E-03
			-105.00		3.4981E-03
			-100.00		3.5618E-03
			-95.00		3.3642E-03
			-90.00		3.0642E-03
			-85.00		4.6805E-03
			-80.00		4.3450E-03
			-75.00		4.3282E-03
			-70.00		4.7473E-03
			-65.00		4.3480E-03
			-60.00		5.1777E-03
			-55.00		5.2728E-03
			-50.00		4.9944E-03
			-45.00		5.7598E-03
			-40.00		5.8273E-03
			-35.00		5.9695E-03
			-30.00		6.1783E-03
			-25.00		5.9229E-03
			-20.00		6.2264E-03
			-15.00		6.4382E-03
			-10.00		5.5933E-03
			-5.00		6.7497E-03
			0.00		7.4088E-03
			5.00		6.6215E-03
			10.00		6.5614E-03
			15.00		5.9177E-03
			20.00		6.1963E-03
			25.00		6.3006E-03
			30.00		5.6325E-03
			35.00		5.9407E-03
			40.00		5.8858E-03
			45.00		5.4579E-03
			50.00		5.2100E-03
			55.00		6.1531E-03
			60.00		5.1653E-03
			65.00		4.3387E-03
			70.00		4.5559E-03
			75.00		4.6575E-03
			80.00		4.5659E-03
			85.00		3.8859E-03
			90.00		3.6699E-03
			95.00		3.2034E-03
			100.00		3.9908E-03
			105.00		3.2690E-03
			110.00		3.0374E-03
			115.00		2.8345E-03
			120.00		2.8406E-03
			125.00		2.9320E-03
			130.00		2.6803E-03
		END_DATA
	END_SCAN  14
	BEGIN_SCAN  15
		TASK_NAME=MODE_INTERVAL
		PROGRAM=BeamAdjust 1.2
		MEAS_DATE=07-Oct-2010 13:43:56
		LINAC=A4
		MODALITY=X
		INPLANE_AXIS_DIR=TARGET_GUN
		CROSSPLANE_AXIS_DIR=LEFT_RIGHT
		DEPTH_AXIS_DIR=UP_DOWN
		ENERGY=6.00
		SSD=950.00
		WEDGE=None
		FIELD_INPLANE=100.00
		FIELD_CROSSPLANE=100.00
		FIELD_TYPE=RECTANGULAR
		GANTRY=0.00
		GANTRY_UPRIGHT_POSITION=0
		GANTRY_ROTATION=CW
		COLL_ANGLE=90.00
		COLL_OFFSET_INPLANE=0.00
		COLL_OFFSET_CROSSPLANE=0.00
		SCAN_DEVICE=STARCHECK
		ELECTROMETER=2D_ARRAY_INTERFACE
		DETECTOR=STARCHECK
		SCAN_CURVETYPE=INPLANE_PROFILE
		SCAN_DEPTH=0.00
		SCAN_OFFAXIS_CROSSPLANE=0.00
		SCAN_ANGLE=0.00
		SCAN_DIAGONAL=FIRST_DIAGONAL
		MEAS_PRESET=TIME_PRESET
		MEAS_TIME=10.000
		MEAS_UNIT=GY
		PRESSURE=1013.25
		TEMPERATURE=20.00
		NORM_TEMPERATURE=20.00
		CORRECTION_FACTOR=1.0000
		CORRECTIONS=AIR_DENSITY_CORR;
		BEGIN_DATA
			-172.40		2.5322E-03
			-169.40		2.8454E-03
			-166.40		3.8695E-03
			-163.40		3.5912E-03
			-160.40		3.8968E-03
			-157.40		3.8025E-03
			-154.40		4.0281E-03
			-151.40		3.7699E-03
			-148.40		4.6963E-03
			-145.40		4.8546E-03
			-142.40		5.2753E-03
			-139.40		5.4139E-03
			-136.40		5.7563E-03
			-133.40		6.9392E-03
			-130.40		6.9003E-03
			-127.40		6.9713E-03
			-124.40		7.4272E-03
			-121.40		8.2312E-03
			-118.40		8.7879E-03
			-115.40		9.5097E-03
			-112.40		9.9802E-03
			-109.40		11.295E-03
			-106.40		12.373E-03
			-103.40		12.618E-03
			-100.40		13.700E-03
			-97.40		15.712E-03
			-94.40		17.219E-03
			-91.40		19.207E-03
			-88.40		21.021E-03
			-85.40		23.227E-03
			-82.40		26.504E-03
			-79.40		29.642E-03
			-76.40		33.884E-03
			-73.40		42.866E-03
			-70.40		61.427E-03
			-67.40		122.27E-03
			-64.40		268.81E-03
			-61.40		429.87E-03
			-58.40		551.83E-03
			-55.40		605.08E-03
			-52.40		626.33E-03
			-49.40		637.61E-03
			-46.40		642.78E-03
			-43.40		646.91E-03
			-40.40		650.56E-03
			-37.40		655.88E-03
			-34.40		656.15E-03
			-31.40		658.73E-03
			-28.40		658.21E-03
			-25.40		661.33E-03
			-22.40		661.28E-03
			-19.40		661.20E-03
			-16.40		664.44E-03
			-13.40		668.01E-03
			0.00		666.52E-03
			13.40		672.22E-03
			16.40		667.74E-03
			19.40		666.84E-03
			22.40		665.41E-03
			25.40		664.41E-03
			28.40		663.63E-03
			31.40		661.35E-03
			34.40		658.53E-03
			37.40		661.13E-03
			40.40		658.85E-03
			43.40		656.20E-03
			46.40		654.78E-03
			49.40		649.69E-03
			52.40		645.18E-03
			55.40		636.17E-03
			58.40		625.42E-03
			61.40		600.38E-03
			64.40		529.70E-03
			67.40		405.48E-03
			70.40		249.76E-03
			73.40		131.26E-03
			76.40		69.862E-03
			79.40		47.314E-03
			82.40		37.438E-03
			85.40		31.367E-03
			88.40		28.223E-03
			91.40		24.652E-03
			94.40		22.504E-03
			97.40		20.223E-03
			100.40		17.974E-03
			103.40		16.978E-03
			106.40		15.482E-03
			109.40		14.019E-03
			112.40		11.932E-03
			115.40		11.203E-03
			118.40		10.258E-03
			121.40		9.6692E-03
			124.40		9.2475E-03
			127.40		8.5783E-03
			130.40		8.0933E-03
			133.40		6.7632E-03
			136.40		6.1683E-03
			139.40		6.5340E-03
			142.40		6.0155E-03
			145.40		5.3271E-03
			148.40		5.7008E-03
			151.40		4.6941E-03
			154.40		4.9559E-03
			157.40		4.2795E-03
			160.40		3.5332E-03
			163.40		3.3628E-03
			166.40		3.7423E-03
			169.40		3.4217E-03
			172.40		3.5100E-03
		END_DATA
	END_SCAN  15
	BEGIN_SCAN  16
		TASK_NAME=MODE_INTERVAL
		PROGRAM=BeamAdjust 1.2
		MEAS_DATE=07-Oct-2010 13:43:56
		LINAC=A4
		MODALITY=X
		INPLANE_AXIS_DIR=GUN_TARGET
		CROSSPLANE_AXIS_DIR=LEFT_RIGHT
		DEPTH_AXIS_DIR=UP_DOWN
		ENERGY=6.00
		SSD=950.00
		WEDGE=None
		FIELD_INPLANE=100.00
		FIELD_CROSSPLANE=100.00
		FIELD_TYPE=RECTANGULAR
		GANTRY=0.00
		GANTRY_UPRIGHT_POSITION=0
		GANTRY_ROTATION=CW
		COLL_ANGLE=90.00
		COLL_OFFSET_INPLANE=0.00
		COLL_OFFSET_CROSSPLANE=0.00
		SCAN_DEVICE=STARCHECK
		ELECTROMETER=2D_ARRAY_INTERFACE
		DETECTOR=STARCHECK
		SCAN_CURVETYPE=INPLANE_PROFILE
		SCAN_DEPTH=0.00
		SCAN_OFFAXIS_CROSSPLANE=0.00
		SCAN_ANGLE=0.00
		SCAN_DIAGONAL=SECOND_DIAGONAL
		MEAS_PRESET=TIME_PRESET
		MEAS_TIME=10.000
		MEAS_UNIT=GY
		PRESSURE=1013.25
		TEMPERATURE=20.00
		NORM_TEMPERATURE=20.00
		CORRECTION_FACTOR=1.0000
		CORRECTIONS=AIR_DENSITY_CORR;
		BEGIN_DATA
			-172.40		4.0264E-03
			-169.40		3.4984E-03
			-166.40		3.3316E-03
			-163.40		3.1590E-03
			-160.40		3.8675E-03
			-157.40		4.0326E-03
			-154.40		4.7165E-03
			-151.40		4.9574E-03
			-148.40		5.3472E-03
			-145.40		5.2674E-03
			-142.40		5.8356E-03
			-139.40		6.0750E-03
			-136.40		6.3202E-03
			-133.40		7.4015E-03
			-130.40		8.4166E-03
			-127.40		8.5428E-03
			-124.40		9.5527E-03
			-121.40		9.9877E-03
			-118.40		11.074E-03
			-115.40		11.133E-03
			-112.40		12.242E-03
			-109.40		13.698E-03
			-106.40		15.605E-03
			-103.40		16.646E-03
			-100.40		19.110E-03
			-97.40		20.173E-03
			-94.40		22.266E-03
			-91.40		25.077E-03
			-88.40		28.529E-03
			-85.40		32.855E-03
			-82.40		40.069E-03
			-79.40		53.496E-03
			-76.40		91.826E-03
			-73.40		211.79E-03
			-70.40		379.72E-03
			-67.40		519.92E-03
			-64.40		594.30E-03
			-61.40		623.75E-03
			-58.40		639.44E-03
			-55.40		645.38E-03
			-52.40		653.99E-03
			-49.40		656.63E-03
			-46.40		658.97E-03
			-43.40		661.11E-03
			-40.40		663.62E-03
			-37.40		666.25E-03
			-34.40		664.91E-03
			-31.40		665.27E-03
			-28.40		667.63E-03
			-25.40		666.61E-03
			-22.40		665.47E-03
			-19.40		669.39E-03
			-16.40		670.34E-03
			-13.40		671.82E-03
			0.00		666.52E-03
			13.40		667.97E-03
			16.40		666.10E-03
			19.40		663.04E-03
			22.40		660.08E-03
			25.40		659.52E-03
			28.40		658.78E-03
			31.40		656.45E-03
			34.40		652.79E-03
			37.40		651.68E-03
			40.40		649.82E-03
			43.40		646.27E-03
			46.40		642.79E-03
			49.40		635.04E-03
			52.40		619.81E-03
			55.40		594.54E-03
			58.40		532.74E-03
			61.40		392.44E-03
			64.40		212.79E-03
			67.40		88.757E-03
			70.40		52.244E-03
			73.40		39.329E-03
			76.40		32.678E-03
			79.40		28.023E-03
			82.40		25.651E-03
			85.40		22.532E-03
			88.40		20.760E-03
			91.40		18.558E-03
			94.40		17.275E-03
			97.40		15.529E-03
			100.40		14.107E-03
			103.40		12.193E-03
			106.40		12.026E-03
			109.40		10.568E-03
			112.40		10.259E-03
			115.40		9.3806E-03
			118.40		8.9361E-03
			121.40		7.7990E-03
			124.40		7.2614E-03
			127.40		7.0169E-03
			130.40		6.9307E-03
			133.40		6.2551E-03
			136.40		5.5107E-03
			139.40		5.7876E-03
			142.40		5.8058E-03
			145.40		5.1807E-03
			148.40		4.8215E-03
			151.40		4.3114E-03
			154.40		4.0379E-03
			157.40		3.7001E-03
			160.40		3.6776E-03
			163.40		4.0702E-03
			166.40		3.8016E-03
			169.40		2.9262E-03
			172.40		2.3691E-03
		END_DATA
	END_SCAN  16
END_SCAN_DATA
