BEGIN_SCAN_DATA
	FORMAT=CC-Export V1.9                  
	FILE_CREATION_DATE=07-Oct-2010 13:43:00
	LAST_MODIFIED=07-Oct-2010 13:43:00
	BEGIN_SCAN  1
		TASK_NAME=MODE_INTERVAL
		PROGRAM=BeamAdjust 1.2
		MEAS_DATE=07-Oct-2010 13:43:00
		LINAC=A4
		MODALITY=X
		INPLANE_AXIS_DIR=TARGET_GUN
		CROSSPLANE_AXIS_DIR=LEFT_RIGHT
		DEPTH_AXIS_DIR=UP_DOWN
		ENERGY=6.00
		SSD=950.00
		WEDGE=None
		FIELD_INPLANE=100.00
		FIELD_CROSSPLANE=100.00
		FIELD_TYPE=RECTANGULAR
		GANTRY=0.00
		GANTRY_UPRIGHT_POSITION=0
		GANTRY_ROTATION=CW
		COLL_ANGLE=90.00
		COLL_OFFSET_INPLANE=0.00
		COLL_OFFSET_CROSSPLANE=0.00
		SCAN_DEVICE=STARCHECK
		ELECTROMETER=2D_ARRAY_INTERFACE
		DETECTOR=STARCHECK
		SCAN_CURVETYPE=CROSSPLANE_PROFILE
		SCAN_DEPTH=0.00
		SCAN_OFFAXIS_INPLANE=-130.00
		SCAN_ANGLE=0.00
		SCAN_DIAGONAL=NOT_DIAGONAL
		MEAS_PRESET=TIME_PRESET
		MEAS_TIME=10.000
		MEAS_UNIT=GY
		PRESSURE=1013.25
		TEMPERATURE=20.00
		NORM_TEMPERATURE=20.00
		CORRECTION_FACTOR=1.0000
		CORRECTIONS=AIR_DENSITY_CORR;
		BEGIN_DATA
			-130.00		2.3351E-03
			-80.00		4.1985E-03
			-40.00		6.4349E-03
			40.00		6.8106E-03
			80.00		4.1172E-03
			130.00		1.9868E-03
		END_DATA
	END_SCAN  1
	BEGIN_SCAN  2
		TASK_NAME=MODE_INTERVAL
		PROGRAM=BeamAdjust 1.2
		MEAS_DATE=07-Oct-2010 13:43:00
		LINAC=A4
		MODALITY=X
		INPLANE_AXIS_DIR=TARGET_GUN
		CROSSPLANE_AXIS_DIR=LEFT_RIGHT
		DEPTH_AXIS_DIR=UP_DOWN
		ENERGY=6.00
		SSD=950.00
		WEDGE=None
		FIELD_INPLANE=100.00
		FIELD_CROSSPLANE=100.00
		FIELD_TYPE=RECTANGULAR
		GANTRY=0.00
		GANTRY_UPRIGHT_POSITION=0
		GANTRY_ROTATION=CW
		COLL_ANGLE=90.00
		COLL_OFFSET_INPLANE=0.00
		COLL_OFFSET_CROSSPLANE=0.00
		SCAN_DEVICE=STARCHECK
		ELECTROMETER=2D_ARRAY_INTERFACE
		DETECTOR=STARCHECK
		SCAN_CURVETYPE=CROSSPLANE_PROFILE
		SCAN_DEPTH=0.00
		SCAN_OFFAXIS_INPLANE=-100.00
		SCAN_ANGLE=0.00
		SCAN_DIAGONAL=NOT_DIAGONAL
		MEAS_PRESET=TIME_PRESET
		MEAS_TIME=10.000
		MEAS_UNIT=GY
		PRESSURE=1013.25
		TEMPERATURE=20.00
		NORM_TEMPERATURE=20.00
		CORRECTION_FACTOR=1.0000
		CORRECTIONS=AIR_DENSITY_CORR;
		BEGIN_DATA
			-60.00		9.3998E-03
			-30.00		13.183E-03
			30.00		15.068E-03
			60.00		10.858E-03
		END_DATA
	END_SCAN  2
	BEGIN_SCAN  3
		TASK_NAME=MODE_INTERVAL
		PROGRAM=BeamAdjust 1.2
		MEAS_DATE=07-Oct-2010 13:43:00
		LINAC=A4
		MODALITY=X
		INPLANE_AXIS_DIR=TARGET_GUN
		CROSSPLANE_AXIS_DIR=LEFT_RIGHT
		DEPTH_AXIS_DIR=UP_DOWN
		ENERGY=6.00
		SSD=950.00
		WEDGE=None
		FIELD_INPLANE=100.00
		FIELD_CROSSPLANE=100.00
		FIELD_TYPE=RECTANGULAR
		GANTRY=0.00
		GANTRY_UPRIGHT_POSITION=0
		GANTRY_ROTATION=CW
		COLL_ANGLE=90.00
		COLL_OFFSET_INPLANE=0.00
		COLL_OFFSET_CROSSPLANE=0.00
		SCAN_DEVICE=STARCHECK
		ELECTROMETER=2D_ARRAY_INTERFACE
		DETECTOR=STARCHECK
		SCAN_CURVETYPE=CROSSPLANE_PROFILE
		SCAN_DEPTH=0.00
		SCAN_OFFAXIS_INPLANE=-50.00
		SCAN_ANGLE=0.00
		SCAN_DIAGONAL=NOT_DIAGONAL
		MEAS_PRESET=TIME_PRESET
		MEAS_TIME=10.000
		MEAS_UNIT=GY
		PRESSURE=1013.25
		TEMPERATURE=20.00
		NORM_TEMPERATURE=20.00
		CORRECTION_FACTOR=1.0000
		CORRECTIONS=AIR_DENSITY_CORR;
		BEGIN_DATA
			-30.00		378.28E-03
			-15.00		374.23E-03
			15.00		387.23E-03
			30.00		383.68E-03
		END_DATA
	END_SCAN  3
	BEGIN_SCAN  4
		TASK_NAME=MODE_INTERVAL
		PROGRAM=BeamAdjust 1.2
		MEAS_DATE=07-Oct-2010 13:43:00
		LINAC=A4
		MODALITY=X
		INPLANE_AXIS_DIR=TARGET_GUN
		CROSSPLANE_AXIS_DIR=LEFT_RIGHT
		DEPTH_AXIS_DIR=UP_DOWN
		ENERGY=6.00
		SSD=950.00
		WEDGE=None
		FIELD_INPLANE=100.00
		FIELD_CROSSPLANE=100.00
		FIELD_TYPE=RECTANGULAR
		GANTRY=0.00
		GANTRY_UPRIGHT_POSITION=0
		GANTRY_ROTATION=CW
		COLL_ANGLE=90.00
		COLL_OFFSET_INPLANE=0.00
		COLL_OFFSET_CROSSPLANE=0.00
		SCAN_DEVICE=STARCHECK
		ELECTROMETER=2D_ARRAY_INTERFACE
		DETECTOR=STARCHECK
		SCAN_CURVETYPE=CROSSPLANE_PROFILE
		SCAN_DEPTH=0.00
		SCAN_OFFAXIS_INPLANE=0.00
		SCAN_ANGLE=0.00
		SCAN_DIAGONAL=NOT_DIAGONAL
		MEAS_PRESET=TIME_PRESET
		MEAS_TIME=10.000
		MEAS_UNIT=GY
		PRESSURE=1013.25
		TEMPERATURE=20.00
		NORM_TEMPERATURE=20.00
		CORRECTION_FACTOR=1.0000
		CORRECTIONS=AIR_DENSITY_CORR;
		BEGIN_DATA
			-126.00		5.5067E-03
			-123.00		6.6349E-03
			-120.00		6.8076E-03
			-117.00		7.7876E-03
			-114.00		8.6976E-03
			-111.00		8.2506E-03
			-108.00		8.8128E-03
			-105.00		9.1050E-03
			-102.00		10.031E-03
			-99.00		10.857E-03
			-96.00		11.951E-03
			-93.00		12.989E-03
			-90.00		14.164E-03
			-87.00		15.065E-03
			-84.00		16.881E-03
			-81.00		17.802E-03
			-78.00		19.076E-03
			-75.00		21.878E-03
			-72.00		24.192E-03
			-69.00		26.693E-03
			-66.00		30.109E-03
			-63.00		33.362E-03
			-60.00		37.895E-03
			-57.00		44.462E-03
			-54.00		53.338E-03
			-51.00		71.459E-03
			-48.00		112.24E-03
			-45.00		279.20E-03
			-42.00		541.34E-03
			-39.00		610.39E-03
			-36.00		631.88E-03
			-33.00		637.58E-03
			-30.00		645.22E-03
			-27.00		647.68E-03
			-24.00		652.65E-03
			-21.00		653.08E-03
			-18.00		656.90E-03
			-15.00		657.06E-03
			-12.00		657.02E-03
			-9.00		660.60E-03
			-6.00		661.57E-03
			0.00		659.41E-03
			6.00		661.83E-03
			9.00		660.85E-03
			12.00		659.15E-03
			15.00		660.25E-03
			18.00		660.26E-03
			21.00		658.96E-03
			24.00		654.65E-03
			27.00		658.51E-03
			30.00		657.44E-03
			33.00		656.09E-03
			36.00		654.83E-03
			39.00		652.38E-03
			42.00		648.67E-03
			45.00		642.78E-03
			48.00		630.79E-03
			51.00		606.15E-03
			54.00		524.05E-03
			57.00		236.66E-03
			60.00		101.84E-03
			63.00		68.414E-03
			66.00		51.946E-03
			69.00		42.941E-03
			72.00		36.944E-03
			75.00		32.608E-03
			78.00		28.741E-03
			81.00		25.884E-03
			84.00		23.439E-03
			87.00		20.915E-03
			90.00		19.524E-03
			93.00		17.477E-03
			96.00		15.536E-03
			99.00		14.588E-03
			102.00		13.318E-03
			105.00		12.460E-03
			108.00		11.746E-03
			111.00		10.216E-03
			114.00		9.8242E-03
			117.00		9.3047E-03
			120.00		8.3796E-03
			123.00		7.7387E-03
			126.00		7.6332E-03
		END_DATA
	END_SCAN  4
	BEGIN_SCAN  5
		TASK_NAME=MODE_INTERVAL
		PROGRAM=BeamAdjust 1.2
		MEAS_DATE=07-Oct-2010 13:43:00
		LINAC=A4
		MODALITY=X
		INPLANE_AXIS_DIR=TARGET_GUN
		CROSSPLANE_AXIS_DIR=LEFT_RIGHT
		DEPTH_AXIS_DIR=UP_DOWN
		ENERGY=6.00
		SSD=950.00
		WEDGE=None
		FIELD_INPLANE=100.00
		FIELD_CROSSPLANE=100.00
		FIELD_TYPE=RECTANGULAR
		GANTRY=0.00
		GANTRY_UPRIGHT_POSITION=0
		GANTRY_ROTATION=CW
		COLL_ANGLE=90.00
		COLL_OFFSET_INPLANE=0.00
		COLL_OFFSET_CROSSPLANE=0.00
		SCAN_DEVICE=STARCHECK
		ELECTROMETER=2D_ARRAY_INTERFACE
		DETECTOR=STARCHECK
		SCAN_CURVETYPE=CROSSPLANE_PROFILE
		SCAN_DEPTH=0.00
		SCAN_OFFAXIS_INPLANE=50.00
		SCAN_ANGLE=0.00
		SCAN_DIAGONAL=NOT_DIAGONAL
		MEAS_PRESET=TIME_PRESET
		MEAS_TIME=10.000
		MEAS_UNIT=GY
		PRESSURE=1013.25
		TEMPERATURE=20.00
		NORM_TEMPERATURE=20.00
		CORRECTION_FACTOR=1.0000
		CORRECTIONS=AIR_DENSITY_CORR;
		BEGIN_DATA
			-30.00		261.43E-03
			-15.00		278.33E-03
			15.00		269.81E-03
			30.00		253.47E-03
		END_DATA
	END_SCAN  5
	BEGIN_SCAN  6
		TASK_NAME=MODE_INTERVAL
		PROGRAM=BeamAdjust 1.2
		MEAS_DATE=07-Oct-2010 13:43:00
		LINAC=A4
		MODALITY=X
		INPLANE_AXIS_DIR=TARGET_GUN
		CROSSPLANE_AXIS_DIR=LEFT_RIGHT
		DEPTH_AXIS_DIR=UP_DOWN
		ENERGY=6.00
		SSD=950.00
		WEDGE=None
		FIELD_INPLANE=100.00
		FIELD_CROSSPLANE=100.00
		FIELD_TYPE=RECTANGULAR
		GANTRY=0.00
		GANTRY_UPRIGHT_POSITION=0
		GANTRY_ROTATION=CW
		COLL_ANGLE=90.00
		COLL_OFFSET_INPLANE=0.00
		COLL_OFFSET_CROSSPLANE=0.00
		SCAN_DEVICE=STARCHECK
		ELECTROMETER=2D_ARRAY_INTERFACE
		DETECTOR=STARCHECK
		SCAN_CURVETYPE=CROSSPLANE_PROFILE
		SCAN_DEPTH=0.00
		SCAN_OFFAXIS_INPLANE=100.00
		SCAN_ANGLE=0.00
		SCAN_DIAGONAL=NOT_DIAGONAL
		MEAS_PRESET=TIME_PRESET
		MEAS_TIME=10.000
		MEAS_UNIT=GY
		PRESSURE=1013.25
		TEMPERATURE=20.00
		NORM_TEMPERATURE=20.00
		CORRECTION_FACTOR=1.0000
		CORRECTIONS=AIR_DENSITY_CORR;
		BEGIN_DATA
			-60.00		8.3937E-03
			-30.00		14.617E-03
			30.00		14.787E-03
			60.00		9.3179E-03
		END_DATA
	END_SCAN  6
	BEGIN_SCAN  7
		TASK_NAME=MODE_INTERVAL
		PROGRAM=BeamAdjust 1.2
		MEAS_DATE=07-Oct-2010 13:43:00
		LINAC=A4
		MODALITY=X
		INPLANE_AXIS_DIR=TARGET_GUN
		CROSSPLANE_AXIS_DIR=LEFT_RIGHT
		DEPTH_AXIS_DIR=UP_DOWN
		ENERGY=6.00
		SSD=950.00
		WEDGE=None
		FIELD_INPLANE=100.00
		FIELD_CROSSPLANE=100.00
		FIELD_TYPE=RECTANGULAR
		GANTRY=0.00
		GANTRY_UPRIGHT_POSITION=0
		GANTRY_ROTATION=CW
		COLL_ANGLE=90.00
		COLL_OFFSET_INPLANE=0.00
		COLL_OFFSET_CROSSPLANE=0.00
		SCAN_DEVICE=STARCHECK
		ELECTROMETER=2D_ARRAY_INTERFACE
		DETECTOR=STARCHECK
		SCAN_CURVETYPE=CROSSPLANE_PROFILE
		SCAN_DEPTH=0.00
		SCAN_OFFAXIS_INPLANE=130.00
		SCAN_ANGLE=0.00
		SCAN_DIAGONAL=NOT_DIAGONAL
		MEAS_PRESET=TIME_PRESET
		MEAS_TIME=10.000
		MEAS_UNIT=GY
		PRESSURE=1013.25
		TEMPERATURE=20.00
		NORM_TEMPERATURE=20.00
		CORRECTION_FACTOR=1.0000
		CORRECTIONS=AIR_DENSITY_CORR;
		BEGIN_DATA
			-130.00		1.4802E-03
			-80.00		3.3536E-03
			-40.00		7.1969E-03
			40.00		7.8195E-03
			80.00		3.8870E-03
			130.00		2.0327E-03
		END_DATA
	END_SCAN  7
	BEGIN_SCAN  8
		TASK_NAME=MODE_INTERVAL
		PROGRAM=BeamAdjust 1.2
		MEAS_DATE=07-Oct-2010 13:43:00
		LINAC=A4
		MODALITY=X
		INPLANE_AXIS_DIR=TARGET_GUN
		CROSSPLANE_AXIS_DIR=LEFT_RIGHT
		DEPTH_AXIS_DIR=UP_DOWN
		ENERGY=6.00
		SSD=950.00
		WEDGE=None
		FIELD_INPLANE=100.00
		FIELD_CROSSPLANE=100.00
		FIELD_TYPE=RECTANGULAR
		GANTRY=0.00
		GANTRY_UPRIGHT_POSITION=0
		GANTRY_ROTATION=CW
		COLL_ANGLE=90.00
		COLL_OFFSET_INPLANE=0.00
		COLL_OFFSET_CROSSPLANE=0.00
		SCAN_DEVICE=STARCHECK
		ELECTROMETER=2D_ARRAY_INTERFACE
		DETECTOR=STARCHECK
		SCAN_CURVETYPE=INPLANE_PROFILE
		SCAN_DEPTH=0.00
		SCAN_OFFAXIS_CROSSPLANE=-130.00
		SCAN_ANGLE=0.00
		SCAN_DIAGONAL=NOT_DIAGONAL
		MEAS_PRESET=TIME_PRESET
		MEAS_TIME=10.000
		MEAS_UNIT=GY
		PRESSURE=1013.25
		TEMPERATURE=20.00
		NORM_TEMPERATURE=20.00
		CORRECTION_FACTOR=1.0000
		CORRECTIONS=AIR_DENSITY_CORR;
		BEGIN_DATA
			-130.00		2.3351E-03
			-125.00		2.4111E-03
			-120.00		2.3434E-03
			-115.00		2.4814E-03
			-110.00		2.8307E-03
			-105.00		3.1900E-03
			-100.00		3.6271E-03
			-95.00		3.5492E-03
			-90.00		3.6104E-03
			-85.00		3.7498E-03
			-80.00		3.5710E-03
			-75.00		4.0214E-03
			-70.00		3.9319E-03
			-65.00		4.8156E-03
			-60.00		4.2972E-03
			-55.00		4.7378E-03
			-50.00		3.9232E-03
			-45.00		4.1742E-03
			-40.00		4.2314E-03
			-35.00		4.6779E-03
			-30.00		4.9052E-03
			-25.00		4.4624E-03
			-20.00		4.6070E-03
			-15.00		4.1131E-03
			-10.00		4.5677E-03
			-5.00		5.1349E-03
			0.00		5.4816E-03
			5.00		5.9758E-03
			10.00		5.3352E-03
			15.00		4.7495E-03
			20.00		5.0347E-03
			25.00		4.1636E-03
			30.00		4.6196E-03
			35.00		4.9130E-03
			40.00		4.4083E-03
			45.00		4.2606E-03
			50.00		4.2544E-03
			55.00		3.8760E-03
			60.00		3.8488E-03
			65.00		3.5663E-03
			70.00		3.4768E-03
			75.00		4.0773E-03
			80.00		3.0694E-03
			85.00		2.9773E-03
			90.00		2.9321E-03
			95.00		2.9600E-03
			100.00		2.8427E-03
			105.00		2.2767E-03
			110.00		2.8199E-03
			115.00		2.1732E-03
			120.00		1.9937E-03
			125.00		2.2974E-03
			130.00		1.4802E-03
		END_DATA
	END_SCAN  8
	BEGIN_SCAN  9
		TASK_NAME=MODE_INTERVAL
		PROGRAM=BeamAdjust 1.2
		MEAS_DATE=07-Oct-2010 13:43:00
		LINAC=A4
		MODALITY=X
		INPLANE_AXIS_DIR=TARGET_GUN
		CROSSPLANE_AXIS_DIR=LEFT_RIGHT
		DEPTH_AXIS_DIR=UP_DOWN
		ENERGY=6.00
		SSD=950.00
		WEDGE=None
		FIELD_INPLANE=100.00
		FIELD_CROSSPLANE=100.00
		FIELD_TYPE=RECTANGULAR
		GANTRY=0.00
		GANTRY_UPRIGHT_POSITION=0
		GANTRY_ROTATION=CW
		COLL_ANGLE=90.00
		COLL_OFFSET_INPLANE=0.00
		COLL_OFFSET_CROSSPLANE=0.00
		SCAN_DEVICE=STARCHECK
		ELECTROMETER=2D_ARRAY_INTERFACE
		DETECTOR=STARCHECK
		SCAN_CURVETYPE=INPLANE_PROFILE
		SCAN_DEPTH=0.00
		SCAN_OFFAXIS_CROSSPLANE=-100.00
		SCAN_ANGLE=0.00
		SCAN_DIAGONAL=NOT_DIAGONAL
		MEAS_PRESET=TIME_PRESET
		MEAS_TIME=10.000
		MEAS_UNIT=GY
		PRESSURE=1013.25
		TEMPERATURE=20.00
		NORM_TEMPERATURE=20.00
		CORRECTION_FACTOR=1.0000
		CORRECTIONS=AIR_DENSITY_CORR;
		BEGIN_DATA
			-60.00		7.5555E-03
			-30.00		8.8190E-03
			30.00		8.9904E-03
			60.00		6.2923E-03
		END_DATA
	END_SCAN  9
	BEGIN_SCAN  10
		TASK_NAME=MODE_INTERVAL
		PROGRAM=BeamAdjust 1.2
		MEAS_DATE=07-Oct-2010 13:43:00
		LINAC=A4
		MODALITY=X
		INPLANE_AXIS_DIR=TARGET_GUN
		CROSSPLANE_AXIS_DIR=LEFT_RIGHT
		DEPTH_AXIS_DIR=UP_DOWN
		ENERGY=6.00
		SSD=950.00
		WEDGE=None
		FIELD_INPLANE=100.00
		FIELD_CROSSPLANE=100.00
		FIELD_TYPE=RECTANGULAR
		GANTRY=0.00
		GANTRY_UPRIGHT_POSITION=0
		GANTRY_ROTATION=CW
		COLL_ANGLE=90.00
		COLL_OFFSET_INPLANE=0.00
		COLL_OFFSET_CROSSPLANE=0.00
		SCAN_DEVICE=STARCHECK
		ELECTROMETER=2D_ARRAY_INTERFACE
		DETECTOR=STARCHECK
		SCAN_CURVETYPE=INPLANE_PROFILE
		SCAN_DEPTH=0.00
		SCAN_OFFAXIS_CROSSPLANE=-50.00
		SCAN_ANGLE=0.00
		SCAN_DIAGONAL=NOT_DIAGONAL
		MEAS_PRESET=TIME_PRESET
		MEAS_TIME=10.000
		MEAS_UNIT=GY
		PRESSURE=1013.25
		TEMPERATURE=20.00
		NORM_TEMPERATURE=20.00
		CORRECTION_FACTOR=1.0000
		CORRECTIONS=AIR_DENSITY_CORR;
		BEGIN_DATA
			-30.00		65.847E-03
			-15.00		68.357E-03
			15.00		67.351E-03
			30.00		61.959E-03
		END_DATA
	END_SCAN  10
	BEGIN_SCAN  11
		TASK_NAME=MODE_INTERVAL
		PROGRAM=BeamAdjust 1.2
		MEAS_DATE=07-Oct-2010 13:43:00
		LINAC=A4
		MODALITY=X
		INPLANE_AXIS_DIR=TARGET_GUN
		CROSSPLANE_AXIS_DIR=LEFT_RIGHT
		DEPTH_AXIS_DIR=UP_DOWN
		ENERGY=6.00
		SSD=950.00
		WEDGE=None
		FIELD_INPLANE=100.00
		FIELD_CROSSPLANE=100.00
		FIELD_TYPE=RECTANGULAR
		GANTRY=0.00
		GANTRY_UPRIGHT_POSITION=0
		GANTRY_ROTATION=CW
		COLL_ANGLE=90.00
		COLL_OFFSET_INPLANE=0.00
		COLL_OFFSET_CROSSPLANE=0.00
		SCAN_DEVICE=STARCHECK
		ELECTROMETER=2D_ARRAY_INTERFACE
		DETECTOR=STARCHECK
		SCAN_CURVETYPE=INPLANE_PROFILE
		SCAN_DEPTH=0.00
		SCAN_OFFAXIS_CROSSPLANE=0.00
		SCAN_ANGLE=0.00
		SCAN_DIAGONAL=NOT_DIAGONAL
		MEAS_PRESET=TIME_PRESET
		MEAS_TIME=10.000
		MEAS_UNIT=GY
		PRESSURE=1013.25
		TEMPERATURE=20.00
		NORM_TEMPERATURE=20.00
		CORRECTION_FACTOR=1.0000
		CORRECTIONS=AIR_DENSITY_CORR;
		BEGIN_DATA
			-126.00		9.0817E-03
			-123.00		8.6036E-03
			-120.00		10.132E-03
			-117.00		11.304E-03
			-114.00		11.844E-03
			-111.00		12.861E-03
			-108.00		13.366E-03
			-105.00		14.351E-03
			-102.00		15.846E-03
			-99.00		16.071E-03
			-96.00		17.274E-03
			-93.00		19.744E-03
			-90.00		21.321E-03
			-87.00		22.878E-03
			-84.00		25.120E-03
			-81.00		27.255E-03
			-78.00		29.816E-03
			-75.00		32.012E-03
			-72.00		35.764E-03
			-69.00		39.928E-03
			-66.00		45.063E-03
			-63.00		51.627E-03
			-60.00		61.294E-03
			-57.00		81.063E-03
			-54.00		130.91E-03
			-51.00		300.96E-03
			-48.00		547.18E-03
			-45.00		614.29E-03
			-42.00		634.08E-03
			-39.00		643.46E-03
			-36.00		649.12E-03
			-33.00		652.08E-03
			-30.00		656.28E-03
			-27.00		657.23E-03
			-24.00		656.85E-03
			-21.00		655.32E-03
			-18.00		661.64E-03
			-15.00		660.27E-03
			-12.00		662.21E-03
			-9.00		662.70E-03
			-6.00		660.41E-03
			0.00		659.41E-03
			6.00		663.72E-03
			9.00		662.69E-03
			12.00		661.69E-03
			15.00		659.50E-03
			18.00		656.23E-03
			21.00		656.38E-03
			24.00		652.88E-03
			27.00		654.10E-03
			30.00		649.60E-03
			33.00		648.11E-03
			36.00		645.62E-03
			39.00		634.92E-03
			42.00		623.25E-03
			45.00		590.79E-03
			48.00		431.88E-03
			51.00		189.69E-03
			54.00		99.147E-03
			57.00		70.239E-03
			60.00		56.874E-03
			63.00		49.321E-03
			66.00		43.837E-03
			69.00		38.942E-03
			72.00		35.557E-03
			75.00		31.901E-03
			78.00		28.056E-03
			81.00		26.672E-03
			84.00		24.828E-03
			87.00		22.584E-03
			90.00		20.920E-03
			93.00		19.497E-03
			96.00		17.993E-03
			99.00		17.076E-03
			102.00		15.326E-03
			105.00		14.158E-03
			108.00		13.599E-03
			111.00		12.549E-03
			114.00		12.170E-03
			117.00		11.875E-03
			120.00		10.958E-03
			123.00		9.1974E-03
			126.00		8.7563E-03
		END_DATA
	END_SCAN  11
	BEGIN_SCAN  12
		TASK_NAME=MODE_INTERVAL
		PROGRAM=BeamAdjust 1.2
		MEAS_DATE=07-Oct-2010 13:43:00
		LINAC=A4
		MODALITY=X
		INPLANE_AXIS_DIR=TARGET_GUN
		CROSSPLANE_AXIS_DIR=LEFT_RIGHT
		DEPTH_AXIS_DIR=UP_DOWN
		ENERGY=6.00
		SSD=950.00
		WEDGE=None
		FIELD_INPLANE=100.00
		FIELD_CROSSPLANE=100.00
		FIELD_TYPE=RECTANGULAR
		GANTRY=0.00
		GANTRY_UPRIGHT_POSITION=0
		GANTRY_ROTATION=CW
		COLL_ANGLE=90.00
		COLL_OFFSET_INPLANE=0.00
		COLL_OFFSET_CROSSPLANE=0.00
		SCAN_DEVICE=STARCHECK
		ELECTROMETER=2D_ARRAY_INTERFACE
		DETECTOR=STARCHECK
		SCAN_CURVETYPE=INPLANE_PROFILE
		SCAN_DEPTH=0.00
		SCAN_OFFAXIS_CROSSPLANE=50.00
		SCAN_ANGLE=0.00
		SCAN_DIAGONAL=NOT_DIAGONAL
		MEAS_PRESET=TIME_PRESET
		MEAS_TIME=10.000
		MEAS_UNIT=GY
		PRESSURE=1013.25
		TEMPERATURE=20.00
		NORM_TEMPERATURE=20.00
		CORRECTION_FACTOR=1.0000
		CORRECTIONS=AIR_DENSITY_CORR;
		BEGIN_DATA
			-30.00		630.83E-03
			-15.00		636.31E-03
			15.00		632.78E-03
			30.00		629.68E-03
		END_DATA
	END_SCAN  12
	BEGIN_SCAN  13
		TASK_NAME=MODE_INTERVAL
		PROGRAM=BeamAdjust 1.2
		MEAS_DATE=07-Oct-2010 13:43:00
		LINAC=A4
		MODALITY=X
		INPLANE_AXIS_DIR=TARGET_GUN
		CROSSPLANE_AXIS_DIR=LEFT_RIGHT
		DEPTH_AXIS_DIR=UP_DOWN
		ENERGY=6.00
		SSD=950.00
		WEDGE=None
		FIELD_INPLANE=100.00
		FIELD_CROSSPLANE=100.00
		FIELD_TYPE=RECTANGULAR
		GANTRY=0.00
		GANTRY_UPRIGHT_POSITION=0
		GANTRY_ROTATION=CW
		COLL_ANGLE=90.00
		COLL_OFFSET_INPLANE=0.00
		COLL_OFFSET_CROSSPLANE=0.00
		SCAN_DEVICE=STARCHECK
		ELECTROMETER=2D_ARRAY_INTERFACE
		DETECTOR=STARCHECK
		SCAN_CURVETYPE=INPLANE_PROFILE
		SCAN_DEPTH=0.00
		SCAN_OFFAXIS_CROSSPLANE=100.00
		SCAN_ANGLE=0.00
		SCAN_DIAGONAL=NOT_DIAGONAL
		MEAS_PRESET=TIME_PRESET
		MEAS_TIME=10.000
		MEAS_UNIT=GY
		PRESSURE=1013.25
		TEMPERATURE=20.00
		NORM_TEMPERATURE=20.00
		CORRECTION_FACTOR=1.0000
		CORRECTIONS=AIR_DENSITY_CORR;
		BEGIN_DATA
			-60.00		9.5667E-03
			-30.00		11.707E-03
			30.00		11.763E-03
			60.00		7.8895E-03
		END_DATA
	END_SCAN  13
	BEGIN_SCAN  14
		TASK_NAME=MODE_INTERVAL
		PROGRAM=BeamAdjust 1.2
		MEAS_DATE=07-Oct-2010 13:43:00
		LINAC=A4
		MODALITY=X
		INPLANE_AXIS_DIR=TARGET_GUN
		CROSSPLANE_AXIS_DIR=LEFT_RIGHT
		DEPTH_AXIS_DIR=UP_DOWN
		ENERGY=6.00
		SSD=950.00
		WEDGE=None
		FIELD_INPLANE=100.00
		FIELD_CROSSPLANE=100.00
		FIELD_TYPE=RECTANGULAR
		GANTRY=0.00
		GANTRY_UPRIGHT_POSITION=0
		GANTRY_ROTATION=CW
		COLL_ANGLE=90.00
		COLL_OFFSET_INPLANE=0.00
		COLL_OFFSET_CROSSPLANE=0.00
		SCAN_DEVICE=STARCHECK
		ELECTROMETER=2D_ARRAY_INTERFACE
		DETECTOR=STARCHECK
		SCAN_CURVETYPE=INPLANE_PROFILE
		SCAN_DEPTH=0.00
		SCAN_OFFAXIS_CROSSPLANE=130.00
		SCAN_ANGLE=0.00
		SCAN_DIAGONAL=NOT_DIAGONAL
		MEAS_PRESET=TIME_PRESET
		MEAS_TIME=10.000
		MEAS_UNIT=GY
		PRESSURE=1013.25
		TEMPERATURE=20.00
		NORM_TEMPERATURE=20.00
		CORRECTION_FACTOR=1.0000
		CORRECTIONS=AIR_DENSITY_CORR;
		BEGIN_DATA
			-130.00		1.9868E-03
			-125.00		2.8802E-03
			-120.00		3.0415E-03
			-115.00		3.0250E-03
			-110.00		3.0561E-03
			-105.00		3.3343E-03
			-100.00		3.4370E-03
			-95.00		3.0344E-03
			-90.00		2.9975E-03
			-85.00		4.2191E-03
			-80.00		3.9247E-03
			-75.00		4.1774E-03
			-70.00		4.5130E-03
			-65.00		4.6520E-03
			-60.00		5.2219E-03
			-55.00		4.9451E-03
			-50.00		4.9737E-03
			-45.00		5.4499E-03
			-40.00		5.8480E-03
			-35.00		6.0035E-03
			-30.00		5.8962E-03
			-25.00		5.4954E-03
			-20.00		5.7328E-03
			-15.00		5.6971E-03
			-10.00		5.4900E-03
			-5.00		6.5305E-03
			0.00		6.6666E-03
			5.00		5.9014E-03
			10.00		6.2665E-03
			15.00		6.0371E-03
			20.00		6.2644E-03
			25.00		5.5444E-03
			30.00		4.9494E-03
			35.00		5.3308E-03
			40.00		5.7063E-03
			45.00		5.2675E-03
			50.00		5.2734E-03
			55.00		5.2145E-03
			60.00		4.8628E-03
			65.00		4.0006E-03
			70.00		4.2408E-03
			75.00		3.8830E-03
			80.00		3.9891E-03
			85.00		3.6495E-03
			90.00		3.9631E-03
			95.00		3.1500E-03
			100.00		3.5957E-03
			105.00		2.4692E-03
			110.00		2.3856E-03
			115.00		2.4176E-03
			120.00		2.8126E-03
			125.00		2.2491E-03
			130.00		2.0327E-03
		END_DATA
	END_SCAN  14
	BEGIN_SCAN  15
		TASK_NAME=MODE_INTERVAL
		PROGRAM=BeamAdjust 1.2
		MEAS_DATE=07-Oct-2010 13:43:00
		LINAC=A4
		MODALITY=X
		INPLANE_AXIS_DIR=TARGET_GUN
		CROSSPLANE_AXIS_DIR=LEFT_RIGHT
		DEPTH_AXIS_DIR=UP_DOWN
		ENERGY=6.00
		SSD=950.00
		WEDGE=None
		FIELD_INPLANE=100.00
		FIELD_CROSSPLANE=100.00
		FIELD_TYPE=RECTANGULAR
		GANTRY=0.00
		GANTRY_UPRIGHT_POSITION=0
		GANTRY_ROTATION=CW
		COLL_ANGLE=90.00
		COLL_OFFSET_INPLANE=0.00
		COLL_OFFSET_CROSSPLANE=0.00
		SCAN_DEVICE=STARCHECK
		ELECTROMETER=2D_ARRAY_INTERFACE
		DETECTOR=STARCHECK
		SCAN_CURVETYPE=INPLANE_PROFILE
		SCAN_DEPTH=0.00
		SCAN_OFFAXIS_CROSSPLANE=0.00
		SCAN_ANGLE=0.00
		SCAN_DIAGONAL=FIRST_DIAGONAL
		MEAS_PRESET=TIME_PRESET
		MEAS_TIME=10.000
		MEAS_UNIT=GY
		PRESSURE=1013.25
		TEMPERATURE=20.00
		NORM_TEMPERATURE=20.00
		CORRECTION_FACTOR=1.0000
		CORRECTIONS=AIR_DENSITY_CORR;
		BEGIN_DATA
			-172.40		1.8984E-03
			-169.40		3.0611E-03
			-166.40		3.5806E-03
			-163.40		3.3776E-03
			-160.40		3.2777E-03
			-157.40		3.8651E-03
			-154.40		3.6372E-03
			-151.40		3.6941E-03
			-148.40		4.4460E-03
			-145.40		4.5225E-03
			-142.40		5.0661E-03
			-139.40		5.2575E-03
			-136.40		5.8144E-03
			-133.40		6.1685E-03
			-130.40		6.3117E-03
			-127.40		6.3097E-03
			-124.40		7.1736E-03
			-121.40		8.3748E-03
			-118.40		9.1373E-03
			-115.40		9.8227E-03
			-112.40		9.6376E-03
			-109.40		10.870E-03
			-106.40		11.938E-03
			-103.40		12.340E-03
			-100.40		13.199E-03
			-97.40		15.045E-03
			-94.40		16.670E-03
			-91.40		18.372E-03
			-88.40		20.921E-03
			-85.40		22.651E-03
			-82.40		25.476E-03
			-79.40		27.834E-03
			-76.40		32.475E-03
			-73.40		41.501E-03
			-70.40		57.932E-03
			-67.40		109.30E-03
			-64.40		244.73E-03
			-61.40		404.02E-03
			-58.40		532.07E-03
			-55.40		593.64E-03
			-52.40		616.64E-03
			-49.40		628.77E-03
			-46.40		634.31E-03
			-43.40		638.54E-03
			-40.40		642.49E-03
			-37.40		647.55E-03
			-34.40		647.52E-03
			-31.40		650.63E-03
			-28.40		649.57E-03
			-25.40		652.77E-03
			-22.40		652.93E-03
			-19.40		654.43E-03
			-16.40		657.22E-03
			-13.40		660.54E-03
			0.00		659.41E-03
			13.40		665.60E-03
			16.40		661.49E-03
			19.40		660.40E-03
			22.40		658.75E-03
			25.40		657.59E-03
			28.40		656.90E-03
			31.40		654.63E-03
			34.40		652.42E-03
			37.40		654.92E-03
			40.40		652.21E-03
			43.40		649.87E-03
			46.40		648.55E-03
			49.40		642.37E-03
			52.40		639.13E-03
			55.40		629.02E-03
			58.40		619.92E-03
			61.40		595.61E-03
			64.40		526.61E-03
			67.40		404.62E-03
			70.40		252.11E-03
			73.40		132.45E-03
			76.40		71.229E-03
			79.40		47.621E-03
			82.40		37.426E-03
			85.40		31.380E-03
			88.40		27.539E-03
			91.40		24.021E-03
			94.40		21.868E-03
			97.40		19.912E-03
			100.40		17.312E-03
			103.40		16.460E-03
			106.40		14.633E-03
			109.40		13.709E-03
			112.40		11.231E-03
			115.40		11.186E-03
			118.40		10.113E-03
			121.40		9.3647E-03
			124.40		8.4373E-03
			127.40		8.1443E-03
			130.40		7.8993E-03
			133.40		6.4981E-03
			136.40		5.6443E-03
			139.40		5.7500E-03
			142.40		5.5957E-03
			145.40		5.3196E-03
			148.40		5.5144E-03
			151.40		4.5616E-03
			154.40		4.8992E-03
			157.40		4.0538E-03
			160.40		3.7038E-03
			163.40		2.8849E-03
			166.40		3.7438E-03
			169.40		3.0256E-03
			172.40		3.4921E-03
		END_DATA
	END_SCAN  15
	BEGIN_SCAN  16
		TASK_NAME=MODE_INTERVAL
		PROGRAM=BeamAdjust 1.2
		MEAS_DATE=07-Oct-2010 13:43:00
		LINAC=A4
		MODALITY=X
		INPLANE_AXIS_DIR=GUN_TARGET
		CROSSPLANE_AXIS_DIR=LEFT_RIGHT
		DEPTH_AXIS_DIR=UP_DOWN
		ENERGY=6.00
		SSD=950.00
		WEDGE=None
		FIELD_INPLANE=100.00
		FIELD_CROSSPLANE=100.00
		FIELD_TYPE=RECTANGULAR
		GANTRY=0.00
		GANTRY_UPRIGHT_POSITION=0
		GANTRY_ROTATION=CW
		COLL_ANGLE=90.00
		COLL_OFFSET_INPLANE=0.00
		COLL_OFFSET_CROSSPLANE=0.00
		SCAN_DEVICE=STARCHECK
		ELECTROMETER=2D_ARRAY_INTERFACE
		DETECTOR=STARCHECK
		SCAN_CURVETYPE=INPLANE_PROFILE
		SCAN_DEPTH=0.00
		SCAN_OFFAXIS_CROSSPLANE=0.00
		SCAN_ANGLE=0.00
		SCAN_DIAGONAL=SECOND_DIAGONAL
		MEAS_PRESET=TIME_PRESET
		MEAS_TIME=10.000
		MEAS_UNIT=GY
		PRESSURE=1013.25
		TEMPERATURE=20.00
		NORM_TEMPERATURE=20.00
		CORRECTION_FACTOR=1.0000
		CORRECTIONS=AIR_DENSITY_CORR;
		BEGIN_DATA
			-172.40		2.7864E-03
			-169.40		3.3145E-03
			-166.40		3.1826E-03
			-163.40		3.4545E-03
			-160.40		3.5703E-03
			-157.40		4.0697E-03
			-154.40		4.3073E-03
			-151.40		5.1176E-03
			-148.40		5.2684E-03
			-145.40		5.3222E-03
			-142.40		5.9494E-03
			-139.40		6.0187E-03
			-136.40		5.7525E-03
			-133.40		6.8495E-03
			-130.40		7.5860E-03
			-127.40		8.3771E-03
			-124.40		9.1906E-03
			-121.40		9.4210E-03
			-118.40		10.425E-03
			-115.40		10.927E-03
			-112.40		11.710E-03
			-109.40		14.066E-03
			-106.40		14.861E-03
			-103.40		16.152E-03
			-100.40		18.236E-03
			-97.40		20.079E-03
			-94.40		21.919E-03
			-91.40		24.517E-03
			-88.40		27.580E-03
			-85.40		32.285E-03
			-82.40		39.921E-03
			-79.40		53.808E-03
			-76.40		94.015E-03
			-73.40		212.62E-03
			-70.40		376.17E-03
			-67.40		513.73E-03
			-64.40		587.46E-03
			-61.40		617.45E-03
			-58.40		632.17E-03
			-55.40		638.29E-03
			-52.40		646.44E-03
			-49.40		649.30E-03
			-46.40		651.35E-03
			-43.40		653.70E-03
			-40.40		656.06E-03
			-37.40		658.91E-03
			-34.40		657.98E-03
			-31.40		658.43E-03
			-28.40		660.45E-03
			-25.40		659.53E-03
			-22.40		658.04E-03
			-19.40		662.18E-03
			-16.40		663.27E-03
			-13.40		664.60E-03
			0.00		659.41E-03
			13.40		664.03E-03
			16.40		659.34E-03
			19.40		660.02E-03
			22.40		655.76E-03
			25.40		653.73E-03
			28.40		654.64E-03
			31.40		651.57E-03
			34.40		647.56E-03
			37.40		647.38E-03
			40.40		646.48E-03
			43.40		639.60E-03
			46.40		637.77E-03
			49.40		629.28E-03
			52.40		611.81E-03
			55.40		585.17E-03
			58.40		514.14E-03
			61.40		367.74E-03
			64.40		195.30E-03
			67.40		83.702E-03
			70.40		50.300E-03
			73.40		39.254E-03
			76.40		32.228E-03
			79.40		27.385E-03
			82.40		26.470E-03
			85.40		23.303E-03
			88.40		19.905E-03
			91.40		19.549E-03
			94.40		17.746E-03
			97.40		15.487E-03
			100.40		14.506E-03
			103.40		13.137E-03
			106.40		11.219E-03
			109.40		11.275E-03
			112.40		10.718E-03
			115.40		9.2996E-03
			118.40		9.4991E-03
			121.40		7.9346E-03
			124.40		7.3571E-03
			127.40		7.4672E-03
			130.40		6.8948E-03
			133.40		6.3148E-03
			136.40		5.3361E-03
			139.40		5.4869E-03
			142.40		5.1873E-03
			145.40		4.7950E-03
			148.40		4.0848E-03
			151.40		3.9052E-03
			154.40		3.6910E-03
			157.40		3.7451E-03
			160.40		3.4925E-03
			163.40		3.6857E-03
			166.40		3.3674E-03
			169.40		2.4443E-03
			172.40		1.9571E-03
		END_DATA
	END_SCAN  16
END_SCAN_DATA
