BEGIN_SCAN_DATA
	FORMAT=CC-Export V1.9                  
	FILE_CREATION_DATE=07-Oct-2010 13:54:55
	LAST_MODIFIED=07-Oct-2010 13:54:55
	BEGIN_SCAN  1
		TASK_NAME=MODE_INTERVAL
		PROGRAM=BeamAdjust 1.2
		MEAS_DATE=07-Oct-2010 13:54:54
		LINAC=A4
		MODALITY=X
		INPLANE_AXIS_DIR=TARGET_GUN
		CROSSPLANE_AXIS_DIR=LEFT_RIGHT
		DEPTH_AXIS_DIR=UP_DOWN
		ENERGY=6.00
		SSD=950.00
		WEDGE=None
		FIELD_INPLANE=100.00
		FIELD_CROSSPLANE=100.00
		FIELD_TYPE=RECTANGULAR
		GANTRY=0.00
		GANTRY_UPRIGHT_POSITION=0
		GANTRY_ROTATION=CW
		COLL_ANGLE=90.00
		COLL_OFFSET_INPLANE=0.00
		COLL_OFFSET_CROSSPLANE=0.00
		SCAN_DEVICE=STARCHECK
		ELECTROMETER=2D_ARRAY_INTERFACE
		DETECTOR=STARCHECK
		SCAN_CURVETYPE=CROSSPLANE_PROFILE
		SCAN_DEPTH=0.00
		SCAN_OFFAXIS_INPLANE=-130.00
		SCAN_ANGLE=0.00
		SCAN_DIAGONAL=NOT_DIAGONAL
		MEAS_PRESET=TIME_PRESET
		MEAS_TIME=10.000
		MEAS_UNIT=GY
		PRESSURE=1013.25
		TEMPERATURE=20.00
		NORM_TEMPERATURE=20.00
		CORRECTION_FACTOR=1.0000
		CORRECTIONS=AIR_DENSITY_CORR;
		BEGIN_DATA
			-130.00		2.7481E-03
			-80.00		4.2658E-03
			-40.00		7.4047E-03
			40.00		6.7717E-03
			80.00		3.9576E-03
			130.00		2.1544E-03
		END_DATA
	END_SCAN  1
	BEGIN_SCAN  2
		TASK_NAME=MODE_INTERVAL
		PROGRAM=BeamAdjust 1.2
		MEAS_DATE=07-Oct-2010 13:54:55
		LINAC=A4
		MODALITY=X
		INPLANE_AXIS_DIR=TARGET_GUN
		CROSSPLANE_AXIS_DIR=LEFT_RIGHT
		DEPTH_AXIS_DIR=UP_DOWN
		ENERGY=6.00
		SSD=950.00
		WEDGE=None
		FIELD_INPLANE=100.00
		FIELD_CROSSPLANE=100.00
		FIELD_TYPE=RECTANGULAR
		GANTRY=0.00
		GANTRY_UPRIGHT_POSITION=0
		GANTRY_ROTATION=CW
		COLL_ANGLE=90.00
		COLL_OFFSET_INPLANE=0.00
		COLL_OFFSET_CROSSPLANE=0.00
		SCAN_DEVICE=STARCHECK
		ELECTROMETER=2D_ARRAY_INTERFACE
		DETECTOR=STARCHECK
		SCAN_CURVETYPE=CROSSPLANE_PROFILE
		SCAN_DEPTH=0.00
		SCAN_OFFAXIS_INPLANE=-100.00
		SCAN_ANGLE=0.00
		SCAN_DIAGONAL=NOT_DIAGONAL
		MEAS_PRESET=TIME_PRESET
		MEAS_TIME=10.000
		MEAS_UNIT=GY
		PRESSURE=1013.25
		TEMPERATURE=20.00
		NORM_TEMPERATURE=20.00
		CORRECTION_FACTOR=1.0000
		CORRECTIONS=AIR_DENSITY_CORR;
		BEGIN_DATA
			-60.00		11.092E-03
			-30.00		14.605E-03
			30.00		15.402E-03
			60.00		10.400E-03
		END_DATA
	END_SCAN  2
	BEGIN_SCAN  3
		TASK_NAME=MODE_INTERVAL
		PROGRAM=BeamAdjust 1.2
		MEAS_DATE=07-Oct-2010 13:54:55
		LINAC=A4
		MODALITY=X
		INPLANE_AXIS_DIR=TARGET_GUN
		CROSSPLANE_AXIS_DIR=LEFT_RIGHT
		DEPTH_AXIS_DIR=UP_DOWN
		ENERGY=6.00
		SSD=950.00
		WEDGE=None
		FIELD_INPLANE=100.00
		FIELD_CROSSPLANE=100.00
		FIELD_TYPE=RECTANGULAR
		GANTRY=0.00
		GANTRY_UPRIGHT_POSITION=0
		GANTRY_ROTATION=CW
		COLL_ANGLE=90.00
		COLL_OFFSET_INPLANE=0.00
		COLL_OFFSET_CROSSPLANE=0.00
		SCAN_DEVICE=STARCHECK
		ELECTROMETER=2D_ARRAY_INTERFACE
		DETECTOR=STARCHECK
		SCAN_CURVETYPE=CROSSPLANE_PROFILE
		SCAN_DEPTH=0.00
		SCAN_OFFAXIS_INPLANE=-50.00
		SCAN_ANGLE=0.00
		SCAN_DIAGONAL=NOT_DIAGONAL
		MEAS_PRESET=TIME_PRESET
		MEAS_TIME=10.000
		MEAS_UNIT=GY
		PRESSURE=1013.25
		TEMPERATURE=20.00
		NORM_TEMPERATURE=20.00
		CORRECTION_FACTOR=1.0000
		CORRECTIONS=AIR_DENSITY_CORR;
		BEGIN_DATA
			-30.00		393.84E-03
			-15.00		354.48E-03
			15.00		381.65E-03
			30.00		390.60E-03
		END_DATA
	END_SCAN  3
	BEGIN_SCAN  4
		TASK_NAME=MODE_INTERVAL
		PROGRAM=BeamAdjust 1.2
		MEAS_DATE=07-Oct-2010 13:54:55
		LINAC=A4
		MODALITY=X
		INPLANE_AXIS_DIR=TARGET_GUN
		CROSSPLANE_AXIS_DIR=LEFT_RIGHT
		DEPTH_AXIS_DIR=UP_DOWN
		ENERGY=6.00
		SSD=950.00
		WEDGE=None
		FIELD_INPLANE=100.00
		FIELD_CROSSPLANE=100.00
		FIELD_TYPE=RECTANGULAR
		GANTRY=0.00
		GANTRY_UPRIGHT_POSITION=0
		GANTRY_ROTATION=CW
		COLL_ANGLE=90.00
		COLL_OFFSET_INPLANE=0.00
		COLL_OFFSET_CROSSPLANE=0.00
		SCAN_DEVICE=STARCHECK
		ELECTROMETER=2D_ARRAY_INTERFACE
		DETECTOR=STARCHECK
		SCAN_CURVETYPE=CROSSPLANE_PROFILE
		SCAN_DEPTH=0.00
		SCAN_OFFAXIS_INPLANE=0.00
		SCAN_ANGLE=0.00
		SCAN_DIAGONAL=NOT_DIAGONAL
		MEAS_PRESET=TIME_PRESET
		MEAS_TIME=10.000
		MEAS_UNIT=GY
		PRESSURE=1013.25
		TEMPERATURE=20.00
		NORM_TEMPERATURE=20.00
		CORRECTION_FACTOR=1.0000
		CORRECTIONS=AIR_DENSITY_CORR;
		BEGIN_DATA
			-126.00		6.6394E-03
			-123.00		7.7325E-03
			-120.00		8.0190E-03
			-117.00		8.7424E-03
			-114.00		9.0928E-03
			-111.00		9.5860E-03
			-108.00		10.662E-03
			-105.00		11.244E-03
			-102.00		11.779E-03
			-99.00		13.112E-03
			-96.00		14.615E-03
			-93.00		15.769E-03
			-90.00		16.842E-03
			-87.00		18.142E-03
			-84.00		20.780E-03
			-81.00		22.110E-03
			-78.00		24.356E-03
			-75.00		26.958E-03
			-72.00		29.951E-03
			-69.00		34.355E-03
			-66.00		39.447E-03
			-63.00		45.422E-03
			-60.00		54.714E-03
			-57.00		72.621E-03
			-54.00		114.46E-03
			-51.00		288.40E-03
			-48.00		553.37E-03
			-45.00		615.78E-03
			-42.00		635.40E-03
			-39.00		647.48E-03
			-36.00		653.46E-03
			-33.00		654.18E-03
			-30.00		655.79E-03
			-27.00		658.73E-03
			-24.00		660.79E-03
			-21.00		660.62E-03
			-18.00		666.82E-03
			-15.00		667.08E-03
			-12.00		666.71E-03
			-9.00		668.65E-03
			-6.00		668.02E-03
			0.00		666.53E-03
			6.00		670.57E-03
			9.00		669.34E-03
			12.00		667.10E-03
			15.00		666.18E-03
			18.00		665.43E-03
			21.00		663.51E-03
			24.00		659.95E-03
			27.00		664.28E-03
			30.00		662.48E-03
			33.00		660.34E-03
			36.00		656.53E-03
			39.00		650.89E-03
			42.00		639.42E-03
			45.00		614.77E-03
			48.00		526.98E-03
			51.00		234.13E-03
			54.00		102.56E-03
			57.00		68.695E-03
			60.00		53.126E-03
			63.00		44.566E-03
			66.00		38.095E-03
			69.00		33.718E-03
			72.00		29.873E-03
			75.00		26.481E-03
			78.00		24.232E-03
			81.00		21.900E-03
			84.00		19.935E-03
			87.00		17.412E-03
			90.00		16.938E-03
			93.00		15.333E-03
			96.00		13.556E-03
			99.00		12.837E-03
			102.00		11.726E-03
			105.00		11.273E-03
			108.00		10.694E-03
			111.00		9.1249E-03
			114.00		9.0406E-03
			117.00		8.1810E-03
			120.00		8.2432E-03
			123.00		7.0331E-03
			126.00		7.1537E-03
		END_DATA
	END_SCAN  4
	BEGIN_SCAN  5
		TASK_NAME=MODE_INTERVAL
		PROGRAM=BeamAdjust 1.2
		MEAS_DATE=07-Oct-2010 13:54:55
		LINAC=A4
		MODALITY=X
		INPLANE_AXIS_DIR=TARGET_GUN
		CROSSPLANE_AXIS_DIR=LEFT_RIGHT
		DEPTH_AXIS_DIR=UP_DOWN
		ENERGY=6.00
		SSD=950.00
		WEDGE=None
		FIELD_INPLANE=100.00
		FIELD_CROSSPLANE=100.00
		FIELD_TYPE=RECTANGULAR
		GANTRY=0.00
		GANTRY_UPRIGHT_POSITION=0
		GANTRY_ROTATION=CW
		COLL_ANGLE=90.00
		COLL_OFFSET_INPLANE=0.00
		COLL_OFFSET_CROSSPLANE=0.00
		SCAN_DEVICE=STARCHECK
		ELECTROMETER=2D_ARRAY_INTERFACE
		DETECTOR=STARCHECK
		SCAN_CURVETYPE=CROSSPLANE_PROFILE
		SCAN_DEPTH=0.00
		SCAN_OFFAXIS_INPLANE=50.00
		SCAN_ANGLE=0.00
		SCAN_DIAGONAL=NOT_DIAGONAL
		MEAS_PRESET=TIME_PRESET
		MEAS_TIME=10.000
		MEAS_UNIT=GY
		PRESSURE=1013.25
		TEMPERATURE=20.00
		NORM_TEMPERATURE=20.00
		CORRECTION_FACTOR=1.0000
		CORRECTIONS=AIR_DENSITY_CORR;
		BEGIN_DATA
			-30.00		271.17E-03
			-15.00		284.22E-03
			15.00		253.65E-03
			30.00		261.17E-03
		END_DATA
	END_SCAN  5
	BEGIN_SCAN  6
		TASK_NAME=MODE_INTERVAL
		PROGRAM=BeamAdjust 1.2
		MEAS_DATE=07-Oct-2010 13:54:55
		LINAC=A4
		MODALITY=X
		INPLANE_AXIS_DIR=TARGET_GUN
		CROSSPLANE_AXIS_DIR=LEFT_RIGHT
		DEPTH_AXIS_DIR=UP_DOWN
		ENERGY=6.00
		SSD=950.00
		WEDGE=None
		FIELD_INPLANE=100.00
		FIELD_CROSSPLANE=100.00
		FIELD_TYPE=RECTANGULAR
		GANTRY=0.00
		GANTRY_UPRIGHT_POSITION=0
		GANTRY_ROTATION=CW
		COLL_ANGLE=90.00
		COLL_OFFSET_INPLANE=0.00
		COLL_OFFSET_CROSSPLANE=0.00
		SCAN_DEVICE=STARCHECK
		ELECTROMETER=2D_ARRAY_INTERFACE
		DETECTOR=STARCHECK
		SCAN_CURVETYPE=CROSSPLANE_PROFILE
		SCAN_DEPTH=0.00
		SCAN_OFFAXIS_INPLANE=100.00
		SCAN_ANGLE=0.00
		SCAN_DIAGONAL=NOT_DIAGONAL
		MEAS_PRESET=TIME_PRESET
		MEAS_TIME=10.000
		MEAS_UNIT=GY
		PRESSURE=1013.25
		TEMPERATURE=20.00
		NORM_TEMPERATURE=20.00
		CORRECTION_FACTOR=1.0000
		CORRECTIONS=AIR_DENSITY_CORR;
		BEGIN_DATA
			-60.00		10.527E-03
			-30.00		15.206E-03
			30.00		14.885E-03
			60.00		9.1920E-03
		END_DATA
	END_SCAN  6
	BEGIN_SCAN  7
		TASK_NAME=MODE_INTERVAL
		PROGRAM=BeamAdjust 1.2
		MEAS_DATE=07-Oct-2010 13:54:55
		LINAC=A4
		MODALITY=X
		INPLANE_AXIS_DIR=TARGET_GUN
		CROSSPLANE_AXIS_DIR=LEFT_RIGHT
		DEPTH_AXIS_DIR=UP_DOWN
		ENERGY=6.00
		SSD=950.00
		WEDGE=None
		FIELD_INPLANE=100.00
		FIELD_CROSSPLANE=100.00
		FIELD_TYPE=RECTANGULAR
		GANTRY=0.00
		GANTRY_UPRIGHT_POSITION=0
		GANTRY_ROTATION=CW
		COLL_ANGLE=90.00
		COLL_OFFSET_INPLANE=0.00
		COLL_OFFSET_CROSSPLANE=0.00
		SCAN_DEVICE=STARCHECK
		ELECTROMETER=2D_ARRAY_INTERFACE
		DETECTOR=STARCHECK
		SCAN_CURVETYPE=CROSSPLANE_PROFILE
		SCAN_DEPTH=0.00
		SCAN_OFFAXIS_INPLANE=130.00
		SCAN_ANGLE=0.00
		SCAN_DIAGONAL=NOT_DIAGONAL
		MEAS_PRESET=TIME_PRESET
		MEAS_TIME=10.000
		MEAS_UNIT=GY
		PRESSURE=1013.25
		TEMPERATURE=20.00
		NORM_TEMPERATURE=20.00
		CORRECTION_FACTOR=1.0000
		CORRECTIONS=AIR_DENSITY_CORR;
		BEGIN_DATA
			-130.00		2.1440E-03
			-80.00		4.3664E-03
			-40.00		7.6189E-03
			40.00		7.5007E-03
			80.00		4.5654E-03
			130.00		2.3417E-03
		END_DATA
	END_SCAN  7
	BEGIN_SCAN  8
		TASK_NAME=MODE_INTERVAL
		PROGRAM=BeamAdjust 1.2
		MEAS_DATE=07-Oct-2010 13:54:55
		LINAC=A4
		MODALITY=X
		INPLANE_AXIS_DIR=TARGET_GUN
		CROSSPLANE_AXIS_DIR=LEFT_RIGHT
		DEPTH_AXIS_DIR=UP_DOWN
		ENERGY=6.00
		SSD=950.00
		WEDGE=None
		FIELD_INPLANE=100.00
		FIELD_CROSSPLANE=100.00
		FIELD_TYPE=RECTANGULAR
		GANTRY=0.00
		GANTRY_UPRIGHT_POSITION=0
		GANTRY_ROTATION=CW
		COLL_ANGLE=90.00
		COLL_OFFSET_INPLANE=0.00
		COLL_OFFSET_CROSSPLANE=0.00
		SCAN_DEVICE=STARCHECK
		ELECTROMETER=2D_ARRAY_INTERFACE
		DETECTOR=STARCHECK
		SCAN_CURVETYPE=INPLANE_PROFILE
		SCAN_DEPTH=0.00
		SCAN_OFFAXIS_CROSSPLANE=-130.00
		SCAN_ANGLE=0.00
		SCAN_DIAGONAL=NOT_DIAGONAL
		MEAS_PRESET=TIME_PRESET
		MEAS_TIME=10.000
		MEAS_UNIT=GY
		PRESSURE=1013.25
		TEMPERATURE=20.00
		NORM_TEMPERATURE=20.00
		CORRECTION_FACTOR=1.0000
		CORRECTIONS=AIR_DENSITY_CORR;
		BEGIN_DATA
			-130.00		2.7481E-03
			-125.00		2.6519E-03
			-120.00		2.9511E-03
			-115.00		3.7088E-03
			-110.00		3.4225E-03
			-105.00		4.0221E-03
			-100.00		4.0183E-03
			-95.00		4.5253E-03
			-90.00		4.8228E-03
			-85.00		4.4223E-03
			-80.00		4.4492E-03
			-75.00		5.1428E-03
			-70.00		4.8852E-03
			-65.00		5.1825E-03
			-60.00		5.2308E-03
			-55.00		6.3041E-03
			-50.00		4.7177E-03
			-45.00		4.9773E-03
			-40.00		5.1205E-03
			-35.00		6.1258E-03
			-30.00		5.7808E-03
			-25.00		5.4011E-03
			-20.00		5.4232E-03
			-15.00		5.0812E-03
			-10.00		5.4189E-03
			-5.00		6.4496E-03
			0.00		6.1835E-03
			5.00		6.7778E-03
			10.00		5.9159E-03
			15.00		5.5983E-03
			20.00		6.2221E-03
			25.00		5.1565E-03
			30.00		5.9171E-03
			35.00		6.2437E-03
			40.00		5.3475E-03
			45.00		5.0900E-03
			50.00		4.8911E-03
			55.00		4.7202E-03
			60.00		4.5434E-03
			65.00		4.2311E-03
			70.00		4.1023E-03
			75.00		4.0178E-03
			80.00		4.1168E-03
			85.00		3.7999E-03
			90.00		3.6748E-03
			95.00		3.6005E-03
			100.00		3.3312E-03
			105.00		3.4891E-03
			110.00		2.7006E-03
			115.00		2.7243E-03
			120.00		2.6301E-03
			125.00		2.8962E-03
			130.00		2.1440E-03
		END_DATA
	END_SCAN  8
	BEGIN_SCAN  9
		TASK_NAME=MODE_INTERVAL
		PROGRAM=BeamAdjust 1.2
		MEAS_DATE=07-Oct-2010 13:54:55
		LINAC=A4
		MODALITY=X
		INPLANE_AXIS_DIR=TARGET_GUN
		CROSSPLANE_AXIS_DIR=LEFT_RIGHT
		DEPTH_AXIS_DIR=UP_DOWN
		ENERGY=6.00
		SSD=950.00
		WEDGE=None
		FIELD_INPLANE=100.00
		FIELD_CROSSPLANE=100.00
		FIELD_TYPE=RECTANGULAR
		GANTRY=0.00
		GANTRY_UPRIGHT_POSITION=0
		GANTRY_ROTATION=CW
		COLL_ANGLE=90.00
		COLL_OFFSET_INPLANE=0.00
		COLL_OFFSET_CROSSPLANE=0.00
		SCAN_DEVICE=STARCHECK
		ELECTROMETER=2D_ARRAY_INTERFACE
		DETECTOR=STARCHECK
		SCAN_CURVETYPE=INPLANE_PROFILE
		SCAN_DEPTH=0.00
		SCAN_OFFAXIS_CROSSPLANE=-100.00
		SCAN_ANGLE=0.00
		SCAN_DIAGONAL=NOT_DIAGONAL
		MEAS_PRESET=TIME_PRESET
		MEAS_TIME=10.000
		MEAS_UNIT=GY
		PRESSURE=1013.25
		TEMPERATURE=20.00
		NORM_TEMPERATURE=20.00
		CORRECTION_FACTOR=1.0000
		CORRECTIONS=AIR_DENSITY_CORR;
		BEGIN_DATA
			-60.00		8.5460E-03
			-30.00		11.049E-03
			30.00		10.477E-03
			60.00		8.2607E-03
		END_DATA
	END_SCAN  9
	BEGIN_SCAN  10
		TASK_NAME=MODE_INTERVAL
		PROGRAM=BeamAdjust 1.2
		MEAS_DATE=07-Oct-2010 13:54:55
		LINAC=A4
		MODALITY=X
		INPLANE_AXIS_DIR=TARGET_GUN
		CROSSPLANE_AXIS_DIR=LEFT_RIGHT
		DEPTH_AXIS_DIR=UP_DOWN
		ENERGY=6.00
		SSD=950.00
		WEDGE=None
		FIELD_INPLANE=100.00
		FIELD_CROSSPLANE=100.00
		FIELD_TYPE=RECTANGULAR
		GANTRY=0.00
		GANTRY_UPRIGHT_POSITION=0
		GANTRY_ROTATION=CW
		COLL_ANGLE=90.00
		COLL_OFFSET_INPLANE=0.00
		COLL_OFFSET_CROSSPLANE=0.00
		SCAN_DEVICE=STARCHECK
		ELECTROMETER=2D_ARRAY_INTERFACE
		DETECTOR=STARCHECK
		SCAN_CURVETYPE=INPLANE_PROFILE
		SCAN_DEPTH=0.00
		SCAN_OFFAXIS_CROSSPLANE=-50.00
		SCAN_ANGLE=0.00
		SCAN_DIAGONAL=NOT_DIAGONAL
		MEAS_PRESET=TIME_PRESET
		MEAS_TIME=10.000
		MEAS_UNIT=GY
		PRESSURE=1013.25
		TEMPERATURE=20.00
		NORM_TEMPERATURE=20.00
		CORRECTION_FACTOR=1.0000
		CORRECTIONS=AIR_DENSITY_CORR;
		BEGIN_DATA
			-30.00		395.02E-03
			-15.00		391.45E-03
			15.00		381.02E-03
			30.00		370.42E-03
		END_DATA
	END_SCAN  10
	BEGIN_SCAN  11
		TASK_NAME=MODE_INTERVAL
		PROGRAM=BeamAdjust 1.2
		MEAS_DATE=07-Oct-2010 13:54:55
		LINAC=A4
		MODALITY=X
		INPLANE_AXIS_DIR=TARGET_GUN
		CROSSPLANE_AXIS_DIR=LEFT_RIGHT
		DEPTH_AXIS_DIR=UP_DOWN
		ENERGY=6.00
		SSD=950.00
		WEDGE=None
		FIELD_INPLANE=100.00
		FIELD_CROSSPLANE=100.00
		FIELD_TYPE=RECTANGULAR
		GANTRY=0.00
		GANTRY_UPRIGHT_POSITION=0
		GANTRY_ROTATION=CW
		COLL_ANGLE=90.00
		COLL_OFFSET_INPLANE=0.00
		COLL_OFFSET_CROSSPLANE=0.00
		SCAN_DEVICE=STARCHECK
		ELECTROMETER=2D_ARRAY_INTERFACE
		DETECTOR=STARCHECK
		SCAN_CURVETYPE=INPLANE_PROFILE
		SCAN_DEPTH=0.00
		SCAN_OFFAXIS_CROSSPLANE=0.00
		SCAN_ANGLE=0.00
		SCAN_DIAGONAL=NOT_DIAGONAL
		MEAS_PRESET=TIME_PRESET
		MEAS_TIME=10.000
		MEAS_UNIT=GY
		PRESSURE=1013.25
		TEMPERATURE=20.00
		NORM_TEMPERATURE=20.00
		CORRECTION_FACTOR=1.0000
		CORRECTIONS=AIR_DENSITY_CORR;
		BEGIN_DATA
			-126.00		9.2389E-03
			-123.00		9.1741E-03
			-120.00		10.301E-03
			-117.00		11.398E-03
			-114.00		12.051E-03
			-111.00		12.986E-03
			-108.00		13.662E-03
			-105.00		14.783E-03
			-102.00		16.292E-03
			-99.00		16.841E-03
			-96.00		18.548E-03
			-93.00		20.181E-03
			-90.00		21.848E-03
			-87.00		23.538E-03
			-84.00		25.633E-03
			-81.00		28.091E-03
			-78.00		30.725E-03
			-75.00		33.428E-03
			-72.00		36.641E-03
			-69.00		40.574E-03
			-66.00		46.022E-03
			-63.00		52.895E-03
			-60.00		62.848E-03
			-57.00		82.600E-03
			-54.00		134.26E-03
			-51.00		305.50E-03
			-48.00		556.43E-03
			-45.00		622.39E-03
			-42.00		642.33E-03
			-39.00		651.20E-03
			-36.00		656.70E-03
			-33.00		660.13E-03
			-30.00		663.62E-03
			-27.00		665.08E-03
			-24.00		664.35E-03
			-21.00		663.53E-03
			-18.00		669.99E-03
			-15.00		668.71E-03
			-12.00		670.36E-03
			-9.00		669.64E-03
			-6.00		666.85E-03
			0.00		666.53E-03
			6.00		671.62E-03
			9.00		670.76E-03
			12.00		670.08E-03
			15.00		667.45E-03
			18.00		663.62E-03
			21.00		663.14E-03
			24.00		660.04E-03
			27.00		661.33E-03
			30.00		656.90E-03
			33.00		655.26E-03
			36.00		652.42E-03
			39.00		642.10E-03
			42.00		629.38E-03
			45.00		595.42E-03
			48.00		432.11E-03
			51.00		187.57E-03
			54.00		98.286E-03
			57.00		69.542E-03
			60.00		56.880E-03
			63.00		49.066E-03
			66.00		43.425E-03
			69.00		39.031E-03
			72.00		35.151E-03
			75.00		32.061E-03
			78.00		28.433E-03
			81.00		26.659E-03
			84.00		25.001E-03
			87.00		22.527E-03
			90.00		21.422E-03
			93.00		19.223E-03
			96.00		17.929E-03
			99.00		16.820E-03
			102.00		14.792E-03
			105.00		13.987E-03
			108.00		13.300E-03
			111.00		12.603E-03
			114.00		11.935E-03
			117.00		10.648E-03
			120.00		10.286E-03
			123.00		10.037E-03
			126.00		9.1297E-03
		END_DATA
	END_SCAN  11
	BEGIN_SCAN  12
		TASK_NAME=MODE_INTERVAL
		PROGRAM=BeamAdjust 1.2
		MEAS_DATE=07-Oct-2010 13:54:55
		LINAC=A4
		MODALITY=X
		INPLANE_AXIS_DIR=TARGET_GUN
		CROSSPLANE_AXIS_DIR=LEFT_RIGHT
		DEPTH_AXIS_DIR=UP_DOWN
		ENERGY=6.00
		SSD=950.00
		WEDGE=None
		FIELD_INPLANE=100.00
		FIELD_CROSSPLANE=100.00
		FIELD_TYPE=RECTANGULAR
		GANTRY=0.00
		GANTRY_UPRIGHT_POSITION=0
		GANTRY_ROTATION=CW
		COLL_ANGLE=90.00
		COLL_OFFSET_INPLANE=0.00
		COLL_OFFSET_CROSSPLANE=0.00
		SCAN_DEVICE=STARCHECK
		ELECTROMETER=2D_ARRAY_INTERFACE
		DETECTOR=STARCHECK
		SCAN_CURVETYPE=INPLANE_PROFILE
		SCAN_DEPTH=0.00
		SCAN_OFFAXIS_CROSSPLANE=50.00
		SCAN_ANGLE=0.00
		SCAN_DIAGONAL=NOT_DIAGONAL
		MEAS_PRESET=TIME_PRESET
		MEAS_TIME=10.000
		MEAS_UNIT=GY
		PRESSURE=1013.25
		TEMPERATURE=20.00
		NORM_TEMPERATURE=20.00
		CORRECTION_FACTOR=1.0000
		CORRECTIONS=AIR_DENSITY_CORR;
		BEGIN_DATA
			-30.00		327.78E-03
			-15.00		337.35E-03
			15.00		345.73E-03
			30.00		346.23E-03
		END_DATA
	END_SCAN  12
	BEGIN_SCAN  13
		TASK_NAME=MODE_INTERVAL
		PROGRAM=BeamAdjust 1.2
		MEAS_DATE=07-Oct-2010 13:54:55
		LINAC=A4
		MODALITY=X
		INPLANE_AXIS_DIR=TARGET_GUN
		CROSSPLANE_AXIS_DIR=LEFT_RIGHT
		DEPTH_AXIS_DIR=UP_DOWN
		ENERGY=6.00
		SSD=950.00
		WEDGE=None
		FIELD_INPLANE=100.00
		FIELD_CROSSPLANE=100.00
		FIELD_TYPE=RECTANGULAR
		GANTRY=0.00
		GANTRY_UPRIGHT_POSITION=0
		GANTRY_ROTATION=CW
		COLL_ANGLE=90.00
		COLL_OFFSET_INPLANE=0.00
		COLL_OFFSET_CROSSPLANE=0.00
		SCAN_DEVICE=STARCHECK
		ELECTROMETER=2D_ARRAY_INTERFACE
		DETECTOR=STARCHECK
		SCAN_CURVETYPE=INPLANE_PROFILE
		SCAN_DEPTH=0.00
		SCAN_OFFAXIS_CROSSPLANE=100.00
		SCAN_ANGLE=0.00
		SCAN_DIAGONAL=NOT_DIAGONAL
		MEAS_PRESET=TIME_PRESET
		MEAS_TIME=10.000
		MEAS_UNIT=GY
		PRESSURE=1013.25
		TEMPERATURE=20.00
		NORM_TEMPERATURE=20.00
		CORRECTION_FACTOR=1.0000
		CORRECTIONS=AIR_DENSITY_CORR;
		BEGIN_DATA
			-60.00		8.3249E-03
			-30.00		10.610E-03
			30.00		10.525E-03
			60.00		7.5061E-03
		END_DATA
	END_SCAN  13
	BEGIN_SCAN  14
		TASK_NAME=MODE_INTERVAL
		PROGRAM=BeamAdjust 1.2
		MEAS_DATE=07-Oct-2010 13:54:55
		LINAC=A4
		MODALITY=X
		INPLANE_AXIS_DIR=TARGET_GUN
		CROSSPLANE_AXIS_DIR=LEFT_RIGHT
		DEPTH_AXIS_DIR=UP_DOWN
		ENERGY=6.00
		SSD=950.00
		WEDGE=None
		FIELD_INPLANE=100.00
		FIELD_CROSSPLANE=100.00
		FIELD_TYPE=RECTANGULAR
		GANTRY=0.00
		GANTRY_UPRIGHT_POSITION=0
		GANTRY_ROTATION=CW
		COLL_ANGLE=90.00
		COLL_OFFSET_INPLANE=0.00
		COLL_OFFSET_CROSSPLANE=0.00
		SCAN_DEVICE=STARCHECK
		ELECTROMETER=2D_ARRAY_INTERFACE
		DETECTOR=STARCHECK
		SCAN_CURVETYPE=INPLANE_PROFILE
		SCAN_DEPTH=0.00
		SCAN_OFFAXIS_CROSSPLANE=130.00
		SCAN_ANGLE=0.00
		SCAN_DIAGONAL=NOT_DIAGONAL
		MEAS_PRESET=TIME_PRESET
		MEAS_TIME=10.000
		MEAS_UNIT=GY
		PRESSURE=1013.25
		TEMPERATURE=20.00
		NORM_TEMPERATURE=20.00
		CORRECTION_FACTOR=1.0000
		CORRECTIONS=AIR_DENSITY_CORR;
		BEGIN_DATA
			-130.00		2.1544E-03
			-125.00		2.9396E-03
			-120.00		2.5776E-03
			-115.00		2.6633E-03
			-110.00		3.0710E-03
			-105.00		3.2762E-03
			-100.00		3.5127E-03
			-95.00		3.3048E-03
			-90.00		2.9324E-03
			-85.00		4.1527E-03
			-80.00		3.7698E-03
			-75.00		3.8686E-03
			-70.00		4.1165E-03
			-65.00		4.1148E-03
			-60.00		4.9657E-03
			-55.00		4.5790E-03
			-50.00		4.5381E-03
			-45.00		4.8640E-03
			-40.00		5.3087E-03
			-35.00		5.4015E-03
			-30.00		5.3483E-03
			-25.00		5.7373E-03
			-20.00		5.6885E-03
			-15.00		5.7075E-03
			-10.00		5.0221E-03
			-5.00		5.9981E-03
			0.00		6.4873E-03
			5.00		5.7107E-03
			10.00		6.1013E-03
			15.00		5.5787E-03
			20.00		5.6576E-03
			25.00		5.6971E-03
			30.00		4.8811E-03
			35.00		5.1739E-03
			40.00		5.5401E-03
			45.00		5.6469E-03
			50.00		4.9239E-03
			55.00		5.1821E-03
			60.00		4.7064E-03
			65.00		4.0918E-03
			70.00		3.9728E-03
			75.00		4.2137E-03
			80.00		3.8846E-03
			85.00		3.8110E-03
			90.00		3.5579E-03
			95.00		3.4691E-03
			100.00		3.6447E-03
			105.00		2.6558E-03
			110.00		2.7477E-03
			115.00		3.2544E-03
			120.00		2.6991E-03
			125.00		2.3996E-03
			130.00		2.3417E-03
		END_DATA
	END_SCAN  14
	BEGIN_SCAN  15
		TASK_NAME=MODE_INTERVAL
		PROGRAM=BeamAdjust 1.2
		MEAS_DATE=07-Oct-2010 13:54:55
		LINAC=A4
		MODALITY=X
		INPLANE_AXIS_DIR=TARGET_GUN
		CROSSPLANE_AXIS_DIR=LEFT_RIGHT
		DEPTH_AXIS_DIR=UP_DOWN
		ENERGY=6.00
		SSD=950.00
		WEDGE=None
		FIELD_INPLANE=100.00
		FIELD_CROSSPLANE=100.00
		FIELD_TYPE=RECTANGULAR
		GANTRY=0.00
		GANTRY_UPRIGHT_POSITION=0
		GANTRY_ROTATION=CW
		COLL_ANGLE=90.00
		COLL_OFFSET_INPLANE=0.00
		COLL_OFFSET_CROSSPLANE=0.00
		SCAN_DEVICE=STARCHECK
		ELECTROMETER=2D_ARRAY_INTERFACE
		DETECTOR=STARCHECK
		SCAN_CURVETYPE=INPLANE_PROFILE
		SCAN_DEPTH=0.00
		SCAN_OFFAXIS_CROSSPLANE=0.00
		SCAN_ANGLE=0.00
		SCAN_DIAGONAL=FIRST_DIAGONAL
		MEAS_PRESET=TIME_PRESET
		MEAS_TIME=10.000
		MEAS_UNIT=GY
		PRESSURE=1013.25
		TEMPERATURE=20.00
		NORM_TEMPERATURE=20.00
		CORRECTION_FACTOR=1.0000
		CORRECTIONS=AIR_DENSITY_CORR;
		BEGIN_DATA
			-172.40		2.8995E-03
			-169.40		2.8274E-03
			-166.40		3.9788E-03
			-163.40		4.0600E-03
			-160.40		3.7849E-03
			-157.40		4.2629E-03
			-154.40		3.9330E-03
			-151.40		4.4888E-03
			-148.40		4.7097E-03
			-145.40		5.0735E-03
			-142.40		5.9298E-03
			-139.40		6.2897E-03
			-136.40		6.3476E-03
			-133.40		6.7239E-03
			-130.40		7.3283E-03
			-127.40		7.9016E-03
			-124.40		8.1300E-03
			-121.40		9.3580E-03
			-118.40		10.034E-03
			-115.40		11.106E-03
			-112.40		11.441E-03
			-109.40		12.578E-03
			-106.40		14.015E-03
			-103.40		14.384E-03
			-100.40		16.232E-03
			-97.40		18.384E-03
			-94.40		20.100E-03
			-91.40		22.533E-03
			-88.40		25.032E-03
			-85.40		28.132E-03
			-82.40		32.444E-03
			-79.40		39.339E-03
			-76.40		51.396E-03
			-73.40		89.791E-03
			-70.40		224.83E-03
			-67.40		438.08E-03
			-64.40		562.76E-03
			-61.40		604.93E-03
			-58.40		624.38E-03
			-55.40		636.37E-03
			-52.40		642.50E-03
			-49.40		647.93E-03
			-46.40		649.66E-03
			-43.40		652.73E-03
			-40.40		655.39E-03
			-37.40		660.07E-03
			-34.40		659.90E-03
			-31.40		661.67E-03
			-28.40		660.79E-03
			-25.40		663.11E-03
			-22.40		663.57E-03
			-19.40		664.35E-03
			-16.40		667.88E-03
			-13.40		671.29E-03
			0.00		666.53E-03
			13.40		670.75E-03
			16.40		666.54E-03
			19.40		666.24E-03
			22.40		665.18E-03
			25.40		664.16E-03
			28.40		662.88E-03
			31.40		660.77E-03
			34.40		657.51E-03
			37.40		659.94E-03
			40.40		657.24E-03
			43.40		653.82E-03
			46.40		652.48E-03
			49.40		646.28E-03
			52.40		641.35E-03
			55.40		628.92E-03
			58.40		614.27E-03
			61.40		581.16E-03
			64.40		488.85E-03
			67.40		306.32E-03
			70.40		130.51E-03
			73.40		63.859E-03
			76.40		43.988E-03
			79.40		35.378E-03
			82.40		30.065E-03
			85.40		26.372E-03
			88.40		23.836E-03
			91.40		20.856E-03
			94.40		19.122E-03
			97.40		17.110E-03
			100.40		15.749E-03
			103.40		14.815E-03
			106.40		13.285E-03
			109.40		12.295E-03
			112.40		10.511E-03
			115.40		10.320E-03
			118.40		8.9196E-03
			121.40		8.3637E-03
			124.40		8.1702E-03
			127.40		7.6733E-03
			130.40		7.5885E-03
			133.40		6.7499E-03
			136.40		5.4060E-03
			139.40		5.3188E-03
			142.40		4.8523E-03
			145.40		4.8560E-03
			148.40		4.8397E-03
			151.40		4.0941E-03
			154.40		4.5906E-03
			157.40		3.7256E-03
			160.40		3.2113E-03
			163.40		2.9475E-03
			166.40		3.3273E-03
			169.40		3.1239E-03
			172.40		2.8862E-03
		END_DATA
	END_SCAN  15
	BEGIN_SCAN  16
		TASK_NAME=MODE_INTERVAL
		PROGRAM=BeamAdjust 1.2
		MEAS_DATE=07-Oct-2010 13:54:55
		LINAC=A4
		MODALITY=X
		INPLANE_AXIS_DIR=GUN_TARGET
		CROSSPLANE_AXIS_DIR=LEFT_RIGHT
		DEPTH_AXIS_DIR=UP_DOWN
		ENERGY=6.00
		SSD=950.00
		WEDGE=None
		FIELD_INPLANE=100.00
		FIELD_CROSSPLANE=100.00
		FIELD_TYPE=RECTANGULAR
		GANTRY=0.00
		GANTRY_UPRIGHT_POSITION=0
		GANTRY_ROTATION=CW
		COLL_ANGLE=90.00
		COLL_OFFSET_INPLANE=0.00
		COLL_OFFSET_CROSSPLANE=0.00
		SCAN_DEVICE=STARCHECK
		ELECTROMETER=2D_ARRAY_INTERFACE
		DETECTOR=STARCHECK
		SCAN_CURVETYPE=INPLANE_PROFILE
		SCAN_DEPTH=0.00
		SCAN_OFFAXIS_CROSSPLANE=0.00
		SCAN_ANGLE=0.00
		SCAN_DIAGONAL=SECOND_DIAGONAL
		MEAS_PRESET=TIME_PRESET
		MEAS_TIME=10.000
		MEAS_UNIT=GY
		PRESSURE=1013.25
		TEMPERATURE=20.00
		NORM_TEMPERATURE=20.00
		CORRECTION_FACTOR=1.0000
		CORRECTIONS=AIR_DENSITY_CORR;
		BEGIN_DATA
			-172.40		3.0495E-03
			-169.40		3.0461E-03
			-166.40		3.7265E-03
			-163.40		3.0209E-03
			-160.40		3.4945E-03
			-157.40		3.9880E-03
			-154.40		4.1916E-03
			-151.40		4.4325E-03
			-148.40		4.6764E-03
			-145.40		5.0614E-03
			-142.40		5.4261E-03
			-139.40		5.6389E-03
			-136.40		5.8192E-03
			-133.40		6.6705E-03
			-130.40		7.2343E-03
			-127.40		7.6287E-03
			-124.40		8.8256E-03
			-121.40		8.9138E-03
			-118.40		9.6385E-03
			-115.40		10.126E-03
			-112.40		10.537E-03
			-109.40		12.291E-03
			-106.40		13.024E-03
			-103.40		14.624E-03
			-100.40		16.298E-03
			-97.40		17.276E-03
			-94.40		19.288E-03
			-91.40		21.185E-03
			-88.40		23.743E-03
			-85.40		26.652E-03
			-82.40		30.723E-03
			-79.40		37.188E-03
			-76.40		47.305E-03
			-73.40		75.488E-03
			-70.40		176.99E-03
			-67.40		388.55E-03
			-64.40		545.26E-03
			-61.40		602.28E-03
			-58.40		627.50E-03
			-55.40		637.44E-03
			-52.40		649.10E-03
			-49.40		653.17E-03
			-46.40		656.11E-03
			-43.40		659.62E-03
			-40.40		661.38E-03
			-37.40		665.18E-03
			-34.40		664.10E-03
			-31.40		665.46E-03
			-28.40		667.39E-03
			-25.40		666.16E-03
			-22.40		664.52E-03
			-19.40		667.55E-03
			-16.40		669.69E-03
			-13.40		671.92E-03
			0.00		666.53E-03
			13.40		670.68E-03
			16.40		667.34E-03
			19.40		663.91E-03
			22.40		662.01E-03
			25.40		661.13E-03
			28.40		660.67E-03
			31.40		658.56E-03
			34.40		655.90E-03
			37.40		655.32E-03
			40.40		653.83E-03
			43.40		651.60E-03
			46.40		649.51E-03
			49.40		645.39E-03
			52.40		636.65E-03
			55.40		628.00E-03
			58.40		615.98E-03
			61.40		585.56E-03
			64.40		508.09E-03
			67.40		331.06E-03
			70.40		143.16E-03
			73.40		66.822E-03
			76.40		44.661E-03
			79.40		35.724E-03
			82.40		30.781E-03
			85.40		27.149E-03
			88.40		23.875E-03
			91.40		21.786E-03
			94.40		19.821E-03
			97.40		17.775E-03
			100.40		15.580E-03
			103.40		14.052E-03
			106.40		14.245E-03
			109.40		12.055E-03
			112.40		11.071E-03
			115.40		10.374E-03
			118.40		9.4647E-03
			121.40		8.9699E-03
			124.40		7.8253E-03
			127.40		7.2742E-03
			130.40		7.4383E-03
			133.40		6.7089E-03
			136.40		6.0108E-03
			139.40		5.9910E-03
			142.40		5.6669E-03
			145.40		5.6580E-03
			148.40		5.2771E-03
			151.40		4.3699E-03
			154.40		4.1836E-03
			157.40		4.3926E-03
			160.40		3.9484E-03
			163.40		3.7698E-03
			166.40		3.8923E-03
			169.40		2.9006E-03
			172.40		2.6935E-03
		END_DATA
	END_SCAN  16
END_SCAN_DATA
