BEGIN_SCAN_DATA
	FORMAT=CC-Export V1.9                  
	FILE_CREATION_DATE=07-Oct-2010 13:55:30
	LAST_MODIFIED=07-Oct-2010 13:55:30
	BEGIN_SCAN  1
		TASK_NAME=MODE_INTERVAL
		PROGRAM=BeamAdjust 1.2
		MEAS_DATE=07-Oct-2010 13:55:30
		LINAC=A4
		MODALITY=X
		INPLANE_AXIS_DIR=TARGET_GUN
		CROSSPLANE_AXIS_DIR=LEFT_RIGHT
		DEPTH_AXIS_DIR=UP_DOWN
		ENERGY=6.00
		SSD=950.00
		WEDGE=None
		FIELD_INPLANE=100.00
		FIELD_CROSSPLANE=100.00
		FIELD_TYPE=RECTANGULAR
		GANTRY=0.00
		GANTRY_UPRIGHT_POSITION=0
		GANTRY_ROTATION=CW
		COLL_ANGLE=90.00
		COLL_OFFSET_INPLANE=0.00
		COLL_OFFSET_CROSSPLANE=0.00
		SCAN_DEVICE=STARCHECK
		ELECTROMETER=2D_ARRAY_INTERFACE
		DETECTOR=STARCHECK
		SCAN_CURVETYPE=CROSSPLANE_PROFILE
		SCAN_DEPTH=0.00
		SCAN_OFFAXIS_INPLANE=-130.00
		SCAN_ANGLE=0.00
		SCAN_DIAGONAL=NOT_DIAGONAL
		MEAS_PRESET=TIME_PRESET
		MEAS_TIME=10.000
		MEAS_UNIT=GY
		PRESSURE=1013.25
		TEMPERATURE=20.00
		NORM_TEMPERATURE=20.00
		CORRECTION_FACTOR=1.0000
		CORRECTIONS=AIR_DENSITY_CORR;
		BEGIN_DATA
			-130.00		2.7689E-03
			-80.00		4.5213E-03
			-40.00		7.3223E-03
			40.00		7.1237E-03
			80.00		3.8458E-03
			130.00		2.3444E-03
		END_DATA
	END_SCAN  1
	BEGIN_SCAN  2
		TASK_NAME=MODE_INTERVAL
		PROGRAM=BeamAdjust 1.2
		MEAS_DATE=07-Oct-2010 13:55:30
		LINAC=A4
		MODALITY=X
		INPLANE_AXIS_DIR=TARGET_GUN
		CROSSPLANE_AXIS_DIR=LEFT_RIGHT
		DEPTH_AXIS_DIR=UP_DOWN
		ENERGY=6.00
		SSD=950.00
		WEDGE=None
		FIELD_INPLANE=100.00
		FIELD_CROSSPLANE=100.00
		FIELD_TYPE=RECTANGULAR
		GANTRY=0.00
		GANTRY_UPRIGHT_POSITION=0
		GANTRY_ROTATION=CW
		COLL_ANGLE=90.00
		COLL_OFFSET_INPLANE=0.00
		COLL_OFFSET_CROSSPLANE=0.00
		SCAN_DEVICE=STARCHECK
		ELECTROMETER=2D_ARRAY_INTERFACE
		DETECTOR=STARCHECK
		SCAN_CURVETYPE=CROSSPLANE_PROFILE
		SCAN_DEPTH=0.00
		SCAN_OFFAXIS_INPLANE=-100.00
		SCAN_ANGLE=0.00
		SCAN_DIAGONAL=NOT_DIAGONAL
		MEAS_PRESET=TIME_PRESET
		MEAS_TIME=10.000
		MEAS_UNIT=GY
		PRESSURE=1013.25
		TEMPERATURE=20.00
		NORM_TEMPERATURE=20.00
		CORRECTION_FACTOR=1.0000
		CORRECTIONS=AIR_DENSITY_CORR;
		BEGIN_DATA
			-60.00		10.782E-03
			-30.00		14.545E-03
			30.00		15.005E-03
			60.00		10.124E-03
		END_DATA
	END_SCAN  2
	BEGIN_SCAN  3
		TASK_NAME=MODE_INTERVAL
		PROGRAM=BeamAdjust 1.2
		MEAS_DATE=07-Oct-2010 13:55:30
		LINAC=A4
		MODALITY=X
		INPLANE_AXIS_DIR=TARGET_GUN
		CROSSPLANE_AXIS_DIR=LEFT_RIGHT
		DEPTH_AXIS_DIR=UP_DOWN
		ENERGY=6.00
		SSD=950.00
		WEDGE=None
		FIELD_INPLANE=100.00
		FIELD_CROSSPLANE=100.00
		FIELD_TYPE=RECTANGULAR
		GANTRY=0.00
		GANTRY_UPRIGHT_POSITION=0
		GANTRY_ROTATION=CW
		COLL_ANGLE=90.00
		COLL_OFFSET_INPLANE=0.00
		COLL_OFFSET_CROSSPLANE=0.00
		SCAN_DEVICE=STARCHECK
		ELECTROMETER=2D_ARRAY_INTERFACE
		DETECTOR=STARCHECK
		SCAN_CURVETYPE=CROSSPLANE_PROFILE
		SCAN_DEPTH=0.00
		SCAN_OFFAXIS_INPLANE=-50.00
		SCAN_ANGLE=0.00
		SCAN_DIAGONAL=NOT_DIAGONAL
		MEAS_PRESET=TIME_PRESET
		MEAS_TIME=10.000
		MEAS_UNIT=GY
		PRESSURE=1013.25
		TEMPERATURE=20.00
		NORM_TEMPERATURE=20.00
		CORRECTION_FACTOR=1.0000
		CORRECTIONS=AIR_DENSITY_CORR;
		BEGIN_DATA
			-30.00		394.97E-03
			-15.00		355.39E-03
			15.00		383.28E-03
			30.00		390.55E-03
		END_DATA
	END_SCAN  3
	BEGIN_SCAN  4
		TASK_NAME=MODE_INTERVAL
		PROGRAM=BeamAdjust 1.2
		MEAS_DATE=07-Oct-2010 13:55:30
		LINAC=A4
		MODALITY=X
		INPLANE_AXIS_DIR=TARGET_GUN
		CROSSPLANE_AXIS_DIR=LEFT_RIGHT
		DEPTH_AXIS_DIR=UP_DOWN
		ENERGY=6.00
		SSD=950.00
		WEDGE=None
		FIELD_INPLANE=100.00
		FIELD_CROSSPLANE=100.00
		FIELD_TYPE=RECTANGULAR
		GANTRY=0.00
		GANTRY_UPRIGHT_POSITION=0
		GANTRY_ROTATION=CW
		COLL_ANGLE=90.00
		COLL_OFFSET_INPLANE=0.00
		COLL_OFFSET_CROSSPLANE=0.00
		SCAN_DEVICE=STARCHECK
		ELECTROMETER=2D_ARRAY_INTERFACE
		DETECTOR=STARCHECK
		SCAN_CURVETYPE=CROSSPLANE_PROFILE
		SCAN_DEPTH=0.00
		SCAN_OFFAXIS_INPLANE=0.00
		SCAN_ANGLE=0.00
		SCAN_DIAGONAL=NOT_DIAGONAL
		MEAS_PRESET=TIME_PRESET
		MEAS_TIME=10.000
		MEAS_UNIT=GY
		PRESSURE=1013.25
		TEMPERATURE=20.00
		NORM_TEMPERATURE=20.00
		CORRECTION_FACTOR=1.0000
		CORRECTIONS=AIR_DENSITY_CORR;
		BEGIN_DATA
			-126.00		6.4185E-03
			-123.00		7.9744E-03
			-120.00		7.9506E-03
			-117.00		8.7646E-03
			-114.00		9.3592E-03
			-111.00		9.5801E-03
			-108.00		10.898E-03
			-105.00		11.182E-03
			-102.00		12.237E-03
			-99.00		13.197E-03
			-96.00		14.742E-03
			-93.00		16.240E-03
			-90.00		17.408E-03
			-87.00		18.260E-03
			-84.00		20.891E-03
			-81.00		22.405E-03
			-78.00		24.620E-03
			-75.00		27.550E-03
			-72.00		30.446E-03
			-69.00		34.833E-03
			-66.00		40.291E-03
			-63.00		46.184E-03
			-60.00		56.050E-03
			-57.00		75.069E-03
			-54.00		120.69E-03
			-51.00		320.51E-03
			-48.00		566.43E-03
			-45.00		619.78E-03
			-42.00		637.30E-03
			-39.00		649.52E-03
			-36.00		655.09E-03
			-33.00		655.35E-03
			-30.00		657.20E-03
			-27.00		659.95E-03
			-24.00		661.95E-03
			-21.00		661.84E-03
			-18.00		668.11E-03
			-15.00		668.13E-03
			-12.00		667.54E-03
			-9.00		670.38E-03
			-6.00		668.58E-03
			0.00		667.95E-03
			6.00		671.07E-03
			9.00		670.62E-03
			12.00		668.10E-03
			15.00		667.13E-03
			18.00		666.06E-03
			21.00		664.68E-03
			24.00		661.13E-03
			27.00		664.98E-03
			30.00		663.36E-03
			33.00		660.99E-03
			36.00		656.89E-03
			39.00		651.26E-03
			42.00		638.68E-03
			45.00		611.25E-03
			48.00		506.64E-03
			51.00		207.81E-03
			54.00		97.080E-03
			57.00		66.427E-03
			60.00		52.330E-03
			63.00		44.030E-03
			66.00		37.388E-03
			69.00		32.959E-03
			72.00		29.669E-03
			75.00		26.096E-03
			78.00		23.815E-03
			81.00		21.678E-03
			84.00		19.718E-03
			87.00		17.657E-03
			90.00		16.810E-03
			93.00		15.063E-03
			96.00		13.810E-03
			99.00		12.822E-03
			102.00		12.105E-03
			105.00		10.922E-03
			108.00		10.513E-03
			111.00		9.5454E-03
			114.00		8.9033E-03
			117.00		8.0952E-03
			120.00		7.5567E-03
			123.00		7.2999E-03
			126.00		7.3875E-03
		END_DATA
	END_SCAN  4
	BEGIN_SCAN  5
		TASK_NAME=MODE_INTERVAL
		PROGRAM=BeamAdjust 1.2
		MEAS_DATE=07-Oct-2010 13:55:30
		LINAC=A4
		MODALITY=X
		INPLANE_AXIS_DIR=TARGET_GUN
		CROSSPLANE_AXIS_DIR=LEFT_RIGHT
		DEPTH_AXIS_DIR=UP_DOWN
		ENERGY=6.00
		SSD=950.00
		WEDGE=None
		FIELD_INPLANE=100.00
		FIELD_CROSSPLANE=100.00
		FIELD_TYPE=RECTANGULAR
		GANTRY=0.00
		GANTRY_UPRIGHT_POSITION=0
		GANTRY_ROTATION=CW
		COLL_ANGLE=90.00
		COLL_OFFSET_INPLANE=0.00
		COLL_OFFSET_CROSSPLANE=0.00
		SCAN_DEVICE=STARCHECK
		ELECTROMETER=2D_ARRAY_INTERFACE
		DETECTOR=STARCHECK
		SCAN_CURVETYPE=CROSSPLANE_PROFILE
		SCAN_DEPTH=0.00
		SCAN_OFFAXIS_INPLANE=50.00
		SCAN_ANGLE=0.00
		SCAN_DIAGONAL=NOT_DIAGONAL
		MEAS_PRESET=TIME_PRESET
		MEAS_TIME=10.000
		MEAS_UNIT=GY
		PRESSURE=1013.25
		TEMPERATURE=20.00
		NORM_TEMPERATURE=20.00
		CORRECTION_FACTOR=1.0000
		CORRECTIONS=AIR_DENSITY_CORR;
		BEGIN_DATA
			-30.00		270.93E-03
			-15.00		284.61E-03
			15.00		253.69E-03
			30.00		260.30E-03
		END_DATA
	END_SCAN  5
	BEGIN_SCAN  6
		TASK_NAME=MODE_INTERVAL
		PROGRAM=BeamAdjust 1.2
		MEAS_DATE=07-Oct-2010 13:55:30
		LINAC=A4
		MODALITY=X
		INPLANE_AXIS_DIR=TARGET_GUN
		CROSSPLANE_AXIS_DIR=LEFT_RIGHT
		DEPTH_AXIS_DIR=UP_DOWN
		ENERGY=6.00
		SSD=950.00
		WEDGE=None
		FIELD_INPLANE=100.00
		FIELD_CROSSPLANE=100.00
		FIELD_TYPE=RECTANGULAR
		GANTRY=0.00
		GANTRY_UPRIGHT_POSITION=0
		GANTRY_ROTATION=CW
		COLL_ANGLE=90.00
		COLL_OFFSET_INPLANE=0.00
		COLL_OFFSET_CROSSPLANE=0.00
		SCAN_DEVICE=STARCHECK
		ELECTROMETER=2D_ARRAY_INTERFACE
		DETECTOR=STARCHECK
		SCAN_CURVETYPE=CROSSPLANE_PROFILE
		SCAN_DEPTH=0.00
		SCAN_OFFAXIS_INPLANE=100.00
		SCAN_ANGLE=0.00
		SCAN_DIAGONAL=NOT_DIAGONAL
		MEAS_PRESET=TIME_PRESET
		MEAS_TIME=10.000
		MEAS_UNIT=GY
		PRESSURE=1013.25
		TEMPERATURE=20.00
		NORM_TEMPERATURE=20.00
		CORRECTION_FACTOR=1.0000
		CORRECTIONS=AIR_DENSITY_CORR;
		BEGIN_DATA
			-60.00		11.168E-03
			-30.00		15.168E-03
			30.00		14.953E-03
			60.00		9.3046E-03
		END_DATA
	END_SCAN  6
	BEGIN_SCAN  7
		TASK_NAME=MODE_INTERVAL
		PROGRAM=BeamAdjust 1.2
		MEAS_DATE=07-Oct-2010 13:55:30
		LINAC=A4
		MODALITY=X
		INPLANE_AXIS_DIR=TARGET_GUN
		CROSSPLANE_AXIS_DIR=LEFT_RIGHT
		DEPTH_AXIS_DIR=UP_DOWN
		ENERGY=6.00
		SSD=950.00
		WEDGE=None
		FIELD_INPLANE=100.00
		FIELD_CROSSPLANE=100.00
		FIELD_TYPE=RECTANGULAR
		GANTRY=0.00
		GANTRY_UPRIGHT_POSITION=0
		GANTRY_ROTATION=CW
		COLL_ANGLE=90.00
		COLL_OFFSET_INPLANE=0.00
		COLL_OFFSET_CROSSPLANE=0.00
		SCAN_DEVICE=STARCHECK
		ELECTROMETER=2D_ARRAY_INTERFACE
		DETECTOR=STARCHECK
		SCAN_CURVETYPE=CROSSPLANE_PROFILE
		SCAN_DEPTH=0.00
		SCAN_OFFAXIS_INPLANE=130.00
		SCAN_ANGLE=0.00
		SCAN_DIAGONAL=NOT_DIAGONAL
		MEAS_PRESET=TIME_PRESET
		MEAS_TIME=10.000
		MEAS_UNIT=GY
		PRESSURE=1013.25
		TEMPERATURE=20.00
		NORM_TEMPERATURE=20.00
		CORRECTION_FACTOR=1.0000
		CORRECTIONS=AIR_DENSITY_CORR;
		BEGIN_DATA
			-130.00		2.3885E-03
			-80.00		4.3322E-03
			-40.00		7.6339E-03
			40.00		7.1745E-03
			80.00		4.4895E-03
			130.00		2.3935E-03
		END_DATA
	END_SCAN  7
	BEGIN_SCAN  8
		TASK_NAME=MODE_INTERVAL
		PROGRAM=BeamAdjust 1.2
		MEAS_DATE=07-Oct-2010 13:55:30
		LINAC=A4
		MODALITY=X
		INPLANE_AXIS_DIR=TARGET_GUN
		CROSSPLANE_AXIS_DIR=LEFT_RIGHT
		DEPTH_AXIS_DIR=UP_DOWN
		ENERGY=6.00
		SSD=950.00
		WEDGE=None
		FIELD_INPLANE=100.00
		FIELD_CROSSPLANE=100.00
		FIELD_TYPE=RECTANGULAR
		GANTRY=0.00
		GANTRY_UPRIGHT_POSITION=0
		GANTRY_ROTATION=CW
		COLL_ANGLE=90.00
		COLL_OFFSET_INPLANE=0.00
		COLL_OFFSET_CROSSPLANE=0.00
		SCAN_DEVICE=STARCHECK
		ELECTROMETER=2D_ARRAY_INTERFACE
		DETECTOR=STARCHECK
		SCAN_CURVETYPE=INPLANE_PROFILE
		SCAN_DEPTH=0.00
		SCAN_OFFAXIS_CROSSPLANE=-130.00
		SCAN_ANGLE=0.00
		SCAN_DIAGONAL=NOT_DIAGONAL
		MEAS_PRESET=TIME_PRESET
		MEAS_TIME=10.000
		MEAS_UNIT=GY
		PRESSURE=1013.25
		TEMPERATURE=20.00
		NORM_TEMPERATURE=20.00
		CORRECTION_FACTOR=1.0000
		CORRECTIONS=AIR_DENSITY_CORR;
		BEGIN_DATA
			-130.00		2.7689E-03
			-125.00		2.7553E-03
			-120.00		3.0207E-03
			-115.00		3.2622E-03
			-110.00		3.6380E-03
			-105.00		3.5964E-03
			-100.00		4.8481E-03
			-95.00		4.3515E-03
			-90.00		4.6629E-03
			-85.00		4.4430E-03
			-80.00		4.5457E-03
			-75.00		4.9380E-03
			-70.00		5.2425E-03
			-65.00		5.0863E-03
			-60.00		5.3472E-03
			-55.00		6.1410E-03
			-50.00		4.4939E-03
			-45.00		4.9907E-03
			-40.00		4.9802E-03
			-35.00		5.5934E-03
			-30.00		6.1635E-03
			-25.00		5.5643E-03
			-20.00		5.5165E-03
			-15.00		5.2068E-03
			-10.00		5.3614E-03
			-5.00		6.4540E-03
			0.00		6.3836E-03
			5.00		6.6567E-03
			10.00		6.0404E-03
			15.00		5.8119E-03
			20.00		6.1280E-03
			25.00		5.4944E-03
			30.00		5.9365E-03
			35.00		5.5061E-03
			40.00		5.9276E-03
			45.00		4.8249E-03
			50.00		5.1916E-03
			55.00		4.9208E-03
			60.00		4.8804E-03
			65.00		4.2710E-03
			70.00		4.1113E-03
			75.00		4.3255E-03
			80.00		3.8375E-03
			85.00		3.5876E-03
			90.00		3.5085E-03
			95.00		3.6948E-03
			100.00		3.3417E-03
			105.00		2.9106E-03
			110.00		3.5864E-03
			115.00		2.3099E-03
			120.00		2.6776E-03
			125.00		2.7997E-03
			130.00		2.3885E-03
		END_DATA
	END_SCAN  8
	BEGIN_SCAN  9
		TASK_NAME=MODE_INTERVAL
		PROGRAM=BeamAdjust 1.2
		MEAS_DATE=07-Oct-2010 13:55:30
		LINAC=A4
		MODALITY=X
		INPLANE_AXIS_DIR=TARGET_GUN
		CROSSPLANE_AXIS_DIR=LEFT_RIGHT
		DEPTH_AXIS_DIR=UP_DOWN
		ENERGY=6.00
		SSD=950.00
		WEDGE=None
		FIELD_INPLANE=100.00
		FIELD_CROSSPLANE=100.00
		FIELD_TYPE=RECTANGULAR
		GANTRY=0.00
		GANTRY_UPRIGHT_POSITION=0
		GANTRY_ROTATION=CW
		COLL_ANGLE=90.00
		COLL_OFFSET_INPLANE=0.00
		COLL_OFFSET_CROSSPLANE=0.00
		SCAN_DEVICE=STARCHECK
		ELECTROMETER=2D_ARRAY_INTERFACE
		DETECTOR=STARCHECK
		SCAN_CURVETYPE=INPLANE_PROFILE
		SCAN_DEPTH=0.00
		SCAN_OFFAXIS_CROSSPLANE=-100.00
		SCAN_ANGLE=0.00
		SCAN_DIAGONAL=NOT_DIAGONAL
		MEAS_PRESET=TIME_PRESET
		MEAS_TIME=10.000
		MEAS_UNIT=GY
		PRESSURE=1013.25
		TEMPERATURE=20.00
		NORM_TEMPERATURE=20.00
		CORRECTION_FACTOR=1.0000
		CORRECTIONS=AIR_DENSITY_CORR;
		BEGIN_DATA
			-60.00		8.7933E-03
			-30.00		11.052E-03
			30.00		10.718E-03
			60.00		8.0896E-03
		END_DATA
	END_SCAN  9
	BEGIN_SCAN  10
		TASK_NAME=MODE_INTERVAL
		PROGRAM=BeamAdjust 1.2
		MEAS_DATE=07-Oct-2010 13:55:30
		LINAC=A4
		MODALITY=X
		INPLANE_AXIS_DIR=TARGET_GUN
		CROSSPLANE_AXIS_DIR=LEFT_RIGHT
		DEPTH_AXIS_DIR=UP_DOWN
		ENERGY=6.00
		SSD=950.00
		WEDGE=None
		FIELD_INPLANE=100.00
		FIELD_CROSSPLANE=100.00
		FIELD_TYPE=RECTANGULAR
		GANTRY=0.00
		GANTRY_UPRIGHT_POSITION=0
		GANTRY_ROTATION=CW
		COLL_ANGLE=90.00
		COLL_OFFSET_INPLANE=0.00
		COLL_OFFSET_CROSSPLANE=0.00
		SCAN_DEVICE=STARCHECK
		ELECTROMETER=2D_ARRAY_INTERFACE
		DETECTOR=STARCHECK
		SCAN_CURVETYPE=INPLANE_PROFILE
		SCAN_DEPTH=0.00
		SCAN_OFFAXIS_CROSSPLANE=-50.00
		SCAN_ANGLE=0.00
		SCAN_DIAGONAL=NOT_DIAGONAL
		MEAS_PRESET=TIME_PRESET
		MEAS_TIME=10.000
		MEAS_UNIT=GY
		PRESSURE=1013.25
		TEMPERATURE=20.00
		NORM_TEMPERATURE=20.00
		CORRECTION_FACTOR=1.0000
		CORRECTIONS=AIR_DENSITY_CORR;
		BEGIN_DATA
			-30.00		420.94E-03
			-15.00		417.30E-03
			15.00		407.41E-03
			30.00		396.83E-03
		END_DATA
	END_SCAN  10
	BEGIN_SCAN  11
		TASK_NAME=MODE_INTERVAL
		PROGRAM=BeamAdjust 1.2
		MEAS_DATE=07-Oct-2010 13:55:30
		LINAC=A4
		MODALITY=X
		INPLANE_AXIS_DIR=TARGET_GUN
		CROSSPLANE_AXIS_DIR=LEFT_RIGHT
		DEPTH_AXIS_DIR=UP_DOWN
		ENERGY=6.00
		SSD=950.00
		WEDGE=None
		FIELD_INPLANE=100.00
		FIELD_CROSSPLANE=100.00
		FIELD_TYPE=RECTANGULAR
		GANTRY=0.00
		GANTRY_UPRIGHT_POSITION=0
		GANTRY_ROTATION=CW
		COLL_ANGLE=90.00
		COLL_OFFSET_INPLANE=0.00
		COLL_OFFSET_CROSSPLANE=0.00
		SCAN_DEVICE=STARCHECK
		ELECTROMETER=2D_ARRAY_INTERFACE
		DETECTOR=STARCHECK
		SCAN_CURVETYPE=INPLANE_PROFILE
		SCAN_DEPTH=0.00
		SCAN_OFFAXIS_CROSSPLANE=0.00
		SCAN_ANGLE=0.00
		SCAN_DIAGONAL=NOT_DIAGONAL
		MEAS_PRESET=TIME_PRESET
		MEAS_TIME=10.000
		MEAS_UNIT=GY
		PRESSURE=1013.25
		TEMPERATURE=20.00
		NORM_TEMPERATURE=20.00
		CORRECTION_FACTOR=1.0000
		CORRECTIONS=AIR_DENSITY_CORR;
		BEGIN_DATA
			-126.00		9.1102E-03
			-123.00		9.1741E-03
			-120.00		10.451E-03
			-117.00		11.515E-03
			-114.00		12.172E-03
			-111.00		12.876E-03
			-108.00		13.723E-03
			-105.00		14.587E-03
			-102.00		16.102E-03
			-99.00		16.979E-03
			-96.00		18.322E-03
			-93.00		20.501E-03
			-90.00		22.175E-03
			-87.00		23.498E-03
			-84.00		25.755E-03
			-81.00		28.364E-03
			-78.00		30.920E-03
			-75.00		33.229E-03
			-72.00		36.876E-03
			-69.00		40.642E-03
			-66.00		46.212E-03
			-63.00		52.514E-03
			-60.00		62.780E-03
			-57.00		83.034E-03
			-54.00		133.91E-03
			-51.00		306.23E-03
			-48.00		556.90E-03
			-45.00		622.77E-03
			-42.00		642.76E-03
			-39.00		651.84E-03
			-36.00		657.33E-03
			-33.00		660.75E-03
			-30.00		664.69E-03
			-27.00		666.03E-03
			-24.00		665.21E-03
			-21.00		664.19E-03
			-18.00		670.72E-03
			-15.00		669.45E-03
			-12.00		670.74E-03
			-9.00		671.00E-03
			-6.00		667.96E-03
			0.00		667.95E-03
			6.00		672.65E-03
			9.00		671.85E-03
			12.00		671.13E-03
			15.00		668.88E-03
			18.00		664.83E-03
			21.00		664.35E-03
			24.00		661.29E-03
			27.00		662.44E-03
			30.00		658.57E-03
			33.00		656.50E-03
			36.00		654.09E-03
			39.00		642.73E-03
			42.00		631.36E-03
			45.00		596.94E-03
			48.00		432.37E-03
			51.00		187.56E-03
			54.00		98.171E-03
			57.00		70.023E-03
			60.00		56.582E-03
			63.00		49.121E-03
			66.00		43.656E-03
			69.00		38.879E-03
			72.00		35.169E-03
			75.00		31.929E-03
			78.00		28.372E-03
			81.00		26.415E-03
			84.00		24.938E-03
			87.00		22.926E-03
			90.00		21.364E-03
			93.00		19.305E-03
			96.00		18.459E-03
			99.00		16.622E-03
			102.00		14.943E-03
			105.00		13.984E-03
			108.00		13.662E-03
			111.00		12.552E-03
			114.00		11.842E-03
			117.00		10.802E-03
			120.00		10.404E-03
			123.00		9.4753E-03
			126.00		9.0172E-03
		END_DATA
	END_SCAN  11
	BEGIN_SCAN  12
		TASK_NAME=MODE_INTERVAL
		PROGRAM=BeamAdjust 1.2
		MEAS_DATE=07-Oct-2010 13:55:30
		LINAC=A4
		MODALITY=X
		INPLANE_AXIS_DIR=TARGET_GUN
		CROSSPLANE_AXIS_DIR=LEFT_RIGHT
		DEPTH_AXIS_DIR=UP_DOWN
		ENERGY=6.00
		SSD=950.00
		WEDGE=None
		FIELD_INPLANE=100.00
		FIELD_CROSSPLANE=100.00
		FIELD_TYPE=RECTANGULAR
		GANTRY=0.00
		GANTRY_UPRIGHT_POSITION=0
		GANTRY_ROTATION=CW
		COLL_ANGLE=90.00
		COLL_OFFSET_INPLANE=0.00
		COLL_OFFSET_CROSSPLANE=0.00
		SCAN_DEVICE=STARCHECK
		ELECTROMETER=2D_ARRAY_INTERFACE
		DETECTOR=STARCHECK
		SCAN_CURVETYPE=INPLANE_PROFILE
		SCAN_DEPTH=0.00
		SCAN_OFFAXIS_CROSSPLANE=50.00
		SCAN_ANGLE=0.00
		SCAN_DIAGONAL=NOT_DIAGONAL
		MEAS_PRESET=TIME_PRESET
		MEAS_TIME=10.000
		MEAS_UNIT=GY
		PRESSURE=1013.25
		TEMPERATURE=20.00
		NORM_TEMPERATURE=20.00
		CORRECTION_FACTOR=1.0000
		CORRECTIONS=AIR_DENSITY_CORR;
		BEGIN_DATA
			-30.00		302.48E-03
			-15.00		311.78E-03
			15.00		319.63E-03
			30.00		321.28E-03
		END_DATA
	END_SCAN  12
	BEGIN_SCAN  13
		TASK_NAME=MODE_INTERVAL
		PROGRAM=BeamAdjust 1.2
		MEAS_DATE=07-Oct-2010 13:55:30
		LINAC=A4
		MODALITY=X
		INPLANE_AXIS_DIR=TARGET_GUN
		CROSSPLANE_AXIS_DIR=LEFT_RIGHT
		DEPTH_AXIS_DIR=UP_DOWN
		ENERGY=6.00
		SSD=950.00
		WEDGE=None
		FIELD_INPLANE=100.00
		FIELD_CROSSPLANE=100.00
		FIELD_TYPE=RECTANGULAR
		GANTRY=0.00
		GANTRY_UPRIGHT_POSITION=0
		GANTRY_ROTATION=CW
		COLL_ANGLE=90.00
		COLL_OFFSET_INPLANE=0.00
		COLL_OFFSET_CROSSPLANE=0.00
		SCAN_DEVICE=STARCHECK
		ELECTROMETER=2D_ARRAY_INTERFACE
		DETECTOR=STARCHECK
		SCAN_CURVETYPE=INPLANE_PROFILE
		SCAN_DEPTH=0.00
		SCAN_OFFAXIS_CROSSPLANE=100.00
		SCAN_ANGLE=0.00
		SCAN_DIAGONAL=NOT_DIAGONAL
		MEAS_PRESET=TIME_PRESET
		MEAS_TIME=10.000
		MEAS_UNIT=GY
		PRESSURE=1013.25
		TEMPERATURE=20.00
		NORM_TEMPERATURE=20.00
		CORRECTION_FACTOR=1.0000
		CORRECTIONS=AIR_DENSITY_CORR;
		BEGIN_DATA
			-60.00		8.0974E-03
			-30.00		10.913E-03
			30.00		10.489E-03
			60.00		7.5641E-03
		END_DATA
	END_SCAN  13
	BEGIN_SCAN  14
		TASK_NAME=MODE_INTERVAL
		PROGRAM=BeamAdjust 1.2
		MEAS_DATE=07-Oct-2010 13:55:30
		LINAC=A4
		MODALITY=X
		INPLANE_AXIS_DIR=TARGET_GUN
		CROSSPLANE_AXIS_DIR=LEFT_RIGHT
		DEPTH_AXIS_DIR=UP_DOWN
		ENERGY=6.00
		SSD=950.00
		WEDGE=None
		FIELD_INPLANE=100.00
		FIELD_CROSSPLANE=100.00
		FIELD_TYPE=RECTANGULAR
		GANTRY=0.00
		GANTRY_UPRIGHT_POSITION=0
		GANTRY_ROTATION=CW
		COLL_ANGLE=90.00
		COLL_OFFSET_INPLANE=0.00
		COLL_OFFSET_CROSSPLANE=0.00
		SCAN_DEVICE=STARCHECK
		ELECTROMETER=2D_ARRAY_INTERFACE
		DETECTOR=STARCHECK
		SCAN_CURVETYPE=INPLANE_PROFILE
		SCAN_DEPTH=0.00
		SCAN_OFFAXIS_CROSSPLANE=130.00
		SCAN_ANGLE=0.00
		SCAN_DIAGONAL=NOT_DIAGONAL
		MEAS_PRESET=TIME_PRESET
		MEAS_TIME=10.000
		MEAS_UNIT=GY
		PRESSURE=1013.25
		TEMPERATURE=20.00
		NORM_TEMPERATURE=20.00
		CORRECTION_FACTOR=1.0000
		CORRECTIONS=AIR_DENSITY_CORR;
		BEGIN_DATA
			-130.00		2.3444E-03
			-125.00		2.6354E-03
			-120.00		2.5230E-03
			-115.00		2.7686E-03
			-110.00		2.7566E-03
			-105.00		2.9084E-03
			-100.00		3.6049E-03
			-95.00		2.7240E-03
			-90.00		2.8983E-03
			-85.00		4.5714E-03
			-80.00		3.4571E-03
			-75.00		3.8272E-03
			-70.00		3.9927E-03
			-65.00		4.1665E-03
			-60.00		4.6682E-03
			-55.00		4.7916E-03
			-50.00		4.4746E-03
			-45.00		4.9511E-03
			-40.00		4.9393E-03
			-35.00		5.5317E-03
			-30.00		5.4166E-03
			-25.00		5.1554E-03
			-20.00		5.8333E-03
			-15.00		5.6204E-03
			-10.00		4.9734E-03
			-5.00		6.1084E-03
			0.00		6.3550E-03
			5.00		5.8031E-03
			10.00		5.9494E-03
			15.00		5.4225E-03
			20.00		5.6221E-03
			25.00		5.4391E-03
			30.00		5.1915E-03
			35.00		5.2849E-03
			40.00		5.3783E-03
			45.00		4.9516E-03
			50.00		5.3235E-03
			55.00		5.0495E-03
			60.00		4.7492E-03
			65.00		3.8375E-03
			70.00		3.9227E-03
			75.00		4.2093E-03
			80.00		4.1112E-03
			85.00		3.8536E-03
			90.00		3.3649E-03
			95.00		2.9674E-03
			100.00		3.4130E-03
			105.00		2.9520E-03
			110.00		2.5216E-03
			115.00		2.8655E-03
			120.00		3.0516E-03
			125.00		2.5795E-03
			130.00		2.3935E-03
		END_DATA
	END_SCAN  14
	BEGIN_SCAN  15
		TASK_NAME=MODE_INTERVAL
		PROGRAM=BeamAdjust 1.2
		MEAS_DATE=07-Oct-2010 13:55:30
		LINAC=A4
		MODALITY=X
		INPLANE_AXIS_DIR=TARGET_GUN
		CROSSPLANE_AXIS_DIR=LEFT_RIGHT
		DEPTH_AXIS_DIR=UP_DOWN
		ENERGY=6.00
		SSD=950.00
		WEDGE=None
		FIELD_INPLANE=100.00
		FIELD_CROSSPLANE=100.00
		FIELD_TYPE=RECTANGULAR
		GANTRY=0.00
		GANTRY_UPRIGHT_POSITION=0
		GANTRY_ROTATION=CW
		COLL_ANGLE=90.00
		COLL_OFFSET_INPLANE=0.00
		COLL_OFFSET_CROSSPLANE=0.00
		SCAN_DEVICE=STARCHECK
		ELECTROMETER=2D_ARRAY_INTERFACE
		DETECTOR=STARCHECK
		SCAN_CURVETYPE=INPLANE_PROFILE
		SCAN_DEPTH=0.00
		SCAN_OFFAXIS_CROSSPLANE=0.00
		SCAN_ANGLE=0.00
		SCAN_DIAGONAL=FIRST_DIAGONAL
		MEAS_PRESET=TIME_PRESET
		MEAS_TIME=10.000
		MEAS_UNIT=GY
		PRESSURE=1013.25
		TEMPERATURE=20.00
		NORM_TEMPERATURE=20.00
		CORRECTION_FACTOR=1.0000
		CORRECTIONS=AIR_DENSITY_CORR;
		BEGIN_DATA
			-172.40		2.9070E-03
			-169.40		2.8784E-03
			-166.40		4.1554E-03
			-163.40		3.5882E-03
			-160.40		4.0012E-03
			-157.40		4.0856E-03
			-154.40		4.1990E-03
			-151.40		3.9600E-03
			-148.40		4.6948E-03
			-145.40		5.2850E-03
			-142.40		5.5885E-03
			-139.40		6.2033E-03
			-136.40		6.6335E-03
			-133.40		6.9229E-03
			-130.40		7.2525E-03
			-127.40		7.7680E-03
			-124.40		8.4711E-03
			-121.40		9.4943E-03
			-118.40		9.8094E-03
			-115.40		10.920E-03
			-112.40		11.492E-03
			-109.40		12.917E-03
			-106.40		14.022E-03
			-103.40		14.620E-03
			-100.40		15.869E-03
			-97.40		18.354E-03
			-94.40		20.558E-03
			-91.40		22.508E-03
			-88.40		25.539E-03
			-85.40		28.055E-03
			-82.40		32.981E-03
			-79.40		39.925E-03
			-76.40		53.185E-03
			-73.40		95.556E-03
			-70.40		240.32E-03
			-67.40		451.46E-03
			-64.40		567.61E-03
			-61.40		607.53E-03
			-58.40		626.11E-03
			-55.40		636.85E-03
			-52.40		643.92E-03
			-49.40		648.66E-03
			-46.40		651.43E-03
			-43.40		653.11E-03
			-40.40		656.83E-03
			-37.40		660.83E-03
			-34.40		660.67E-03
			-31.40		662.69E-03
			-28.40		661.15E-03
			-25.40		663.80E-03
			-22.40		664.46E-03
			-19.40		665.09E-03
			-16.40		669.26E-03
			-13.40		671.65E-03
			0.00		667.95E-03
			13.40		672.24E-03
			16.40		668.06E-03
			19.40		666.80E-03
			22.40		666.61E-03
			25.40		665.19E-03
			28.40		664.48E-03
			31.40		661.45E-03
			34.40		659.16E-03
			37.40		660.73E-03
			40.40		658.51E-03
			43.40		655.21E-03
			46.40		653.28E-03
			49.40		647.46E-03
			52.40		641.86E-03
			55.40		630.43E-03
			58.40		614.09E-03
			61.40		579.97E-03
			64.40		482.76E-03
			67.40		293.42E-03
			70.40		122.33E-03
			73.40		61.746E-03
			76.40		42.630E-03
			79.40		34.936E-03
			82.40		29.534E-03
			85.40		25.866E-03
			88.40		23.544E-03
			91.40		20.754E-03
			94.40		19.039E-03
			97.40		17.534E-03
			100.40		15.605E-03
			103.40		14.550E-03
			106.40		13.418E-03
			109.40		11.749E-03
			112.40		10.780E-03
			115.40		10.037E-03
			118.40		9.1473E-03
			121.40		8.7558E-03
			124.40		7.9373E-03
			127.40		7.3875E-03
			130.40		7.3768E-03
			133.40		6.3337E-03
			136.40		5.4948E-03
			139.40		5.6038E-03
			142.40		4.8922E-03
			145.40		5.1859E-03
			148.40		4.9359E-03
			151.40		4.1418E-03
			154.40		4.3536E-03
			157.40		4.0093E-03
			160.40		3.1164E-03
			163.40		3.0636E-03
			166.40		3.2291E-03
			169.40		3.1194E-03
			172.40		2.8758E-03
		END_DATA
	END_SCAN  15
	BEGIN_SCAN  16
		TASK_NAME=MODE_INTERVAL
		PROGRAM=BeamAdjust 1.2
		MEAS_DATE=07-Oct-2010 13:55:30
		LINAC=A4
		MODALITY=X
		INPLANE_AXIS_DIR=GUN_TARGET
		CROSSPLANE_AXIS_DIR=LEFT_RIGHT
		DEPTH_AXIS_DIR=UP_DOWN
		ENERGY=6.00
		SSD=950.00
		WEDGE=None
		FIELD_INPLANE=100.00
		FIELD_CROSSPLANE=100.00
		FIELD_TYPE=RECTANGULAR
		GANTRY=0.00
		GANTRY_UPRIGHT_POSITION=0
		GANTRY_ROTATION=CW
		COLL_ANGLE=90.00
		COLL_OFFSET_INPLANE=0.00
		COLL_OFFSET_CROSSPLANE=0.00
		SCAN_DEVICE=STARCHECK
		ELECTROMETER=2D_ARRAY_INTERFACE
		DETECTOR=STARCHECK
		SCAN_CURVETYPE=INPLANE_PROFILE
		SCAN_DEPTH=0.00
		SCAN_OFFAXIS_CROSSPLANE=0.00
		SCAN_ANGLE=0.00
		SCAN_DIAGONAL=SECOND_DIAGONAL
		MEAS_PRESET=TIME_PRESET
		MEAS_TIME=10.000
		MEAS_UNIT=GY
		PRESSURE=1013.25
		TEMPERATURE=20.00
		NORM_TEMPERATURE=20.00
		CORRECTION_FACTOR=1.0000
		CORRECTIONS=AIR_DENSITY_CORR;
		BEGIN_DATA
			-172.40		2.9811E-03
			-169.40		3.4213E-03
			-166.40		3.0515E-03
			-163.40		3.4427E-03
			-160.40		3.7471E-03
			-157.40		3.6227E-03
			-154.40		4.3340E-03
			-151.40		4.2708E-03
			-148.40		4.6199E-03
			-145.40		4.8079E-03
			-142.40		5.6168E-03
			-139.40		5.5617E-03
			-136.40		5.8133E-03
			-133.40		6.4974E-03
			-130.40		7.4397E-03
			-127.40		7.5356E-03
			-124.40		8.2596E-03
			-121.40		9.2797E-03
			-118.40		9.4830E-03
			-115.40		9.9453E-03
			-112.40		10.853E-03
			-109.40		12.128E-03
			-106.40		12.995E-03
			-103.40		14.465E-03
			-100.40		15.999E-03
			-97.40		17.498E-03
			-94.40		18.687E-03
			-91.40		21.502E-03
			-88.40		23.941E-03
			-85.40		26.215E-03
			-82.40		30.359E-03
			-79.40		36.565E-03
			-76.40		46.160E-03
			-73.40		71.821E-03
			-70.40		165.17E-03
			-67.40		371.85E-03
			-64.40		537.85E-03
			-61.40		599.92E-03
			-58.40		626.74E-03
			-55.40		637.97E-03
			-52.40		648.96E-03
			-49.40		653.45E-03
			-46.40		657.21E-03
			-43.40		659.83E-03
			-40.40		662.31E-03
			-37.40		665.21E-03
			-34.40		664.62E-03
			-31.40		665.99E-03
			-28.40		667.83E-03
			-25.40		666.89E-03
			-22.40		665.28E-03
			-19.40		668.32E-03
			-16.40		670.10E-03
			-13.40		673.26E-03
			0.00		667.95E-03
			13.40		671.68E-03
			16.40		668.87E-03
			19.40		665.86E-03
			22.40		663.05E-03
			25.40		662.64E-03
			28.40		661.70E-03
			31.40		660.18E-03
			34.40		657.47E-03
			37.40		656.36E-03
			40.40		655.44E-03
			43.40		653.10E-03
			46.40		650.93E-03
			49.40		647.13E-03
			52.40		638.38E-03
			55.40		629.67E-03
			58.40		618.18E-03
			61.40		589.73E-03
			64.40		513.60E-03
			67.40		344.57E-03
			70.40		152.19E-03
			73.40		69.667E-03
			76.40		45.591E-03
			79.40		36.088E-03
			82.40		31.364E-03
			85.40		27.353E-03
			88.40		24.300E-03
			91.40		21.997E-03
			94.40		19.452E-03
			97.40		18.128E-03
			100.40		15.745E-03
			103.40		14.734E-03
			106.40		13.414E-03
			109.40		11.863E-03
			112.40		11.315E-03
			115.40		10.253E-03
			118.40		9.5575E-03
			121.40		8.3904E-03
			124.40		8.0107E-03
			127.40		7.3699E-03
			130.40		7.8340E-03
			133.40		6.5850E-03
			136.40		5.9197E-03
			139.40		6.1242E-03
			142.40		5.5204E-03
			145.40		5.9776E-03
			148.40		4.7764E-03
			151.40		4.3459E-03
			154.40		4.1025E-03
			157.40		4.3340E-03
			160.40		3.8596E-03
			163.40		4.0897E-03
			166.40		3.4990E-03
			169.40		3.0015E-03
			172.40		2.5652E-03
		END_DATA
	END_SCAN  16
END_SCAN_DATA
