BEGIN_SCAN_DATA
	FORMAT=CC-Export V1.9                  
	FILE_CREATION_DATE=07-Oct-2010 13:56:03
	LAST_MODIFIED=07-Oct-2010 13:56:03
	BEGIN_SCAN  1
		TASK_NAME=MODE_INTERVAL
		PROGRAM=BeamAdjust 1.2
		MEAS_DATE=07-Oct-2010 13:56:03
		LINAC=A4
		MODALITY=X
		INPLANE_AXIS_DIR=TARGET_GUN
		CROSSPLANE_AXIS_DIR=LEFT_RIGHT
		DEPTH_AXIS_DIR=UP_DOWN
		ENERGY=6.00
		SSD=950.00
		WEDGE=None
		FIELD_INPLANE=100.00
		FIELD_CROSSPLANE=100.00
		FIELD_TYPE=RECTANGULAR
		GANTRY=0.00
		GANTRY_UPRIGHT_POSITION=0
		GANTRY_ROTATION=CW
		COLL_ANGLE=90.00
		COLL_OFFSET_INPLANE=0.00
		COLL_OFFSET_CROSSPLANE=0.00
		SCAN_DEVICE=STARCHECK
		ELECTROMETER=2D_ARRAY_INTERFACE
		DETECTOR=STARCHECK
		SCAN_CURVETYPE=CROSSPLANE_PROFILE
		SCAN_DEPTH=0.00
		SCAN_OFFAXIS_INPLANE=-130.00
		SCAN_ANGLE=0.00
		SCAN_DIAGONAL=NOT_DIAGONAL
		MEAS_PRESET=TIME_PRESET
		MEAS_TIME=10.000
		MEAS_UNIT=GY
		PRESSURE=1013.25
		TEMPERATURE=20.00
		NORM_TEMPERATURE=20.00
		CORRECTION_FACTOR=1.0000
		CORRECTIONS=AIR_DENSITY_CORR;
		BEGIN_DATA
			-130.00		2.4762E-03
			-80.00		4.3106E-03
			-40.00		7.0465E-03
			40.00		7.0742E-03
			80.00		3.7951E-03
			130.00		1.6995E-03
		END_DATA
	END_SCAN  1
	BEGIN_SCAN  2
		TASK_NAME=MODE_INTERVAL
		PROGRAM=BeamAdjust 1.2
		MEAS_DATE=07-Oct-2010 13:56:03
		LINAC=A4
		MODALITY=X
		INPLANE_AXIS_DIR=TARGET_GUN
		CROSSPLANE_AXIS_DIR=LEFT_RIGHT
		DEPTH_AXIS_DIR=UP_DOWN
		ENERGY=6.00
		SSD=950.00
		WEDGE=None
		FIELD_INPLANE=100.00
		FIELD_CROSSPLANE=100.00
		FIELD_TYPE=RECTANGULAR
		GANTRY=0.00
		GANTRY_UPRIGHT_POSITION=0
		GANTRY_ROTATION=CW
		COLL_ANGLE=90.00
		COLL_OFFSET_INPLANE=0.00
		COLL_OFFSET_CROSSPLANE=0.00
		SCAN_DEVICE=STARCHECK
		ELECTROMETER=2D_ARRAY_INTERFACE
		DETECTOR=STARCHECK
		SCAN_CURVETYPE=CROSSPLANE_PROFILE
		SCAN_DEPTH=0.00
		SCAN_OFFAXIS_INPLANE=-100.00
		SCAN_ANGLE=0.00
		SCAN_DIAGONAL=NOT_DIAGONAL
		MEAS_PRESET=TIME_PRESET
		MEAS_TIME=10.000
		MEAS_UNIT=GY
		PRESSURE=1013.25
		TEMPERATURE=20.00
		NORM_TEMPERATURE=20.00
		CORRECTION_FACTOR=1.0000
		CORRECTIONS=AIR_DENSITY_CORR;
		BEGIN_DATA
			-60.00		10.335E-03
			-30.00		14.571E-03
			30.00		15.089E-03
			60.00		10.756E-03
		END_DATA
	END_SCAN  2
	BEGIN_SCAN  3
		TASK_NAME=MODE_INTERVAL
		PROGRAM=BeamAdjust 1.2
		MEAS_DATE=07-Oct-2010 13:56:03
		LINAC=A4
		MODALITY=X
		INPLANE_AXIS_DIR=TARGET_GUN
		CROSSPLANE_AXIS_DIR=LEFT_RIGHT
		DEPTH_AXIS_DIR=UP_DOWN
		ENERGY=6.00
		SSD=950.00
		WEDGE=None
		FIELD_INPLANE=100.00
		FIELD_CROSSPLANE=100.00
		FIELD_TYPE=RECTANGULAR
		GANTRY=0.00
		GANTRY_UPRIGHT_POSITION=0
		GANTRY_ROTATION=CW
		COLL_ANGLE=90.00
		COLL_OFFSET_INPLANE=0.00
		COLL_OFFSET_CROSSPLANE=0.00
		SCAN_DEVICE=STARCHECK
		ELECTROMETER=2D_ARRAY_INTERFACE
		DETECTOR=STARCHECK
		SCAN_CURVETYPE=CROSSPLANE_PROFILE
		SCAN_DEPTH=0.00
		SCAN_OFFAXIS_INPLANE=-50.00
		SCAN_ANGLE=0.00
		SCAN_DIAGONAL=NOT_DIAGONAL
		MEAS_PRESET=TIME_PRESET
		MEAS_TIME=10.000
		MEAS_UNIT=GY
		PRESSURE=1013.25
		TEMPERATURE=20.00
		NORM_TEMPERATURE=20.00
		CORRECTION_FACTOR=1.0000
		CORRECTIONS=AIR_DENSITY_CORR;
		BEGIN_DATA
			-30.00		394.03E-03
			-15.00		355.70E-03
			15.00		382.85E-03
			30.00		388.89E-03
		END_DATA
	END_SCAN  3
	BEGIN_SCAN  4
		TASK_NAME=MODE_INTERVAL
		PROGRAM=BeamAdjust 1.2
		MEAS_DATE=07-Oct-2010 13:56:03
		LINAC=A4
		MODALITY=X
		INPLANE_AXIS_DIR=TARGET_GUN
		CROSSPLANE_AXIS_DIR=LEFT_RIGHT
		DEPTH_AXIS_DIR=UP_DOWN
		ENERGY=6.00
		SSD=950.00
		WEDGE=None
		FIELD_INPLANE=100.00
		FIELD_CROSSPLANE=100.00
		FIELD_TYPE=RECTANGULAR
		GANTRY=0.00
		GANTRY_UPRIGHT_POSITION=0
		GANTRY_ROTATION=CW
		COLL_ANGLE=90.00
		COLL_OFFSET_INPLANE=0.00
		COLL_OFFSET_CROSSPLANE=0.00
		SCAN_DEVICE=STARCHECK
		ELECTROMETER=2D_ARRAY_INTERFACE
		DETECTOR=STARCHECK
		SCAN_CURVETYPE=CROSSPLANE_PROFILE
		SCAN_DEPTH=0.00
		SCAN_OFFAXIS_INPLANE=0.00
		SCAN_ANGLE=0.00
		SCAN_DIAGONAL=NOT_DIAGONAL
		MEAS_PRESET=TIME_PRESET
		MEAS_TIME=10.000
		MEAS_UNIT=GY
		PRESSURE=1013.25
		TEMPERATURE=20.00
		NORM_TEMPERATURE=20.00
		CORRECTION_FACTOR=1.0000
		CORRECTIONS=AIR_DENSITY_CORR;
		BEGIN_DATA
			-126.00		6.8513E-03
			-123.00		7.9908E-03
			-120.00		8.1067E-03
			-117.00		8.9484E-03
			-114.00		9.0736E-03
			-111.00		9.8567E-03
			-108.00		10.845E-03
			-105.00		11.414E-03
			-102.00		12.281E-03
			-99.00		13.296E-03
			-96.00		14.307E-03
			-93.00		15.558E-03
			-90.00		17.649E-03
			-87.00		18.389E-03
			-84.00		21.270E-03
			-81.00		22.539E-03
			-78.00		24.966E-03
			-75.00		27.713E-03
			-72.00		30.991E-03
			-69.00		34.968E-03
			-66.00		41.228E-03
			-63.00		46.812E-03
			-60.00		57.801E-03
			-57.00		77.524E-03
			-54.00		129.29E-03
			-51.00		350.19E-03
			-48.00		576.76E-03
			-45.00		622.03E-03
			-42.00		638.53E-03
			-39.00		649.71E-03
			-36.00		655.77E-03
			-33.00		655.75E-03
			-30.00		657.52E-03
			-27.00		659.66E-03
			-24.00		662.13E-03
			-21.00		662.04E-03
			-18.00		668.31E-03
			-15.00		668.40E-03
			-12.00		667.32E-03
			-9.00		669.54E-03
			-6.00		668.93E-03
			0.00		668.01E-03
			6.00		671.54E-03
			9.00		670.51E-03
			12.00		668.12E-03
			15.00		666.65E-03
			18.00		666.14E-03
			21.00		664.47E-03
			24.00		660.88E-03
			27.00		664.42E-03
			30.00		663.27E-03
			33.00		660.25E-03
			36.00		656.60E-03
			39.00		649.92E-03
			42.00		636.60E-03
			45.00		606.33E-03
			48.00		480.70E-03
			51.00		185.43E-03
			54.00		92.562E-03
			57.00		64.682E-03
			60.00		51.187E-03
			63.00		42.867E-03
			66.00		37.052E-03
			69.00		32.233E-03
			72.00		29.359E-03
			75.00		26.013E-03
			78.00		23.513E-03
			81.00		21.169E-03
			84.00		19.293E-03
			87.00		17.764E-03
			90.00		16.821E-03
			93.00		14.853E-03
			96.00		13.627E-03
			99.00		12.580E-03
			102.00		11.571E-03
			105.00		10.611E-03
			108.00		10.631E-03
			111.00		8.9605E-03
			114.00		8.8384E-03
			117.00		8.0464E-03
			120.00		7.1757E-03
			123.00		7.1131E-03
			126.00		7.3061E-03
		END_DATA
	END_SCAN  4
	BEGIN_SCAN  5
		TASK_NAME=MODE_INTERVAL
		PROGRAM=BeamAdjust 1.2
		MEAS_DATE=07-Oct-2010 13:56:03
		LINAC=A4
		MODALITY=X
		INPLANE_AXIS_DIR=TARGET_GUN
		CROSSPLANE_AXIS_DIR=LEFT_RIGHT
		DEPTH_AXIS_DIR=UP_DOWN
		ENERGY=6.00
		SSD=950.00
		WEDGE=None
		FIELD_INPLANE=100.00
		FIELD_CROSSPLANE=100.00
		FIELD_TYPE=RECTANGULAR
		GANTRY=0.00
		GANTRY_UPRIGHT_POSITION=0
		GANTRY_ROTATION=CW
		COLL_ANGLE=90.00
		COLL_OFFSET_INPLANE=0.00
		COLL_OFFSET_CROSSPLANE=0.00
		SCAN_DEVICE=STARCHECK
		ELECTROMETER=2D_ARRAY_INTERFACE
		DETECTOR=STARCHECK
		SCAN_CURVETYPE=CROSSPLANE_PROFILE
		SCAN_DEPTH=0.00
		SCAN_OFFAXIS_INPLANE=50.00
		SCAN_ANGLE=0.00
		SCAN_DIAGONAL=NOT_DIAGONAL
		MEAS_PRESET=TIME_PRESET
		MEAS_TIME=10.000
		MEAS_UNIT=GY
		PRESSURE=1013.25
		TEMPERATURE=20.00
		NORM_TEMPERATURE=20.00
		CORRECTION_FACTOR=1.0000
		CORRECTIONS=AIR_DENSITY_CORR;
		BEGIN_DATA
			-30.00		271.05E-03
			-15.00		284.98E-03
			15.00		255.03E-03
			30.00		259.65E-03
		END_DATA
	END_SCAN  5
	BEGIN_SCAN  6
		TASK_NAME=MODE_INTERVAL
		PROGRAM=BeamAdjust 1.2
		MEAS_DATE=07-Oct-2010 13:56:03
		LINAC=A4
		MODALITY=X
		INPLANE_AXIS_DIR=TARGET_GUN
		CROSSPLANE_AXIS_DIR=LEFT_RIGHT
		DEPTH_AXIS_DIR=UP_DOWN
		ENERGY=6.00
		SSD=950.00
		WEDGE=None
		FIELD_INPLANE=100.00
		FIELD_CROSSPLANE=100.00
		FIELD_TYPE=RECTANGULAR
		GANTRY=0.00
		GANTRY_UPRIGHT_POSITION=0
		GANTRY_ROTATION=CW
		COLL_ANGLE=90.00
		COLL_OFFSET_INPLANE=0.00
		COLL_OFFSET_CROSSPLANE=0.00
		SCAN_DEVICE=STARCHECK
		ELECTROMETER=2D_ARRAY_INTERFACE
		DETECTOR=STARCHECK
		SCAN_CURVETYPE=CROSSPLANE_PROFILE
		SCAN_DEPTH=0.00
		SCAN_OFFAXIS_INPLANE=100.00
		SCAN_ANGLE=0.00
		SCAN_DIAGONAL=NOT_DIAGONAL
		MEAS_PRESET=TIME_PRESET
		MEAS_TIME=10.000
		MEAS_UNIT=GY
		PRESSURE=1013.25
		TEMPERATURE=20.00
		NORM_TEMPERATURE=20.00
		CORRECTION_FACTOR=1.0000
		CORRECTIONS=AIR_DENSITY_CORR;
		BEGIN_DATA
			-60.00		10.807E-03
			-30.00		15.052E-03
			30.00		15.044E-03
			60.00		9.0527E-03
		END_DATA
	END_SCAN  6
	BEGIN_SCAN  7
		TASK_NAME=MODE_INTERVAL
		PROGRAM=BeamAdjust 1.2
		MEAS_DATE=07-Oct-2010 13:56:03
		LINAC=A4
		MODALITY=X
		INPLANE_AXIS_DIR=TARGET_GUN
		CROSSPLANE_AXIS_DIR=LEFT_RIGHT
		DEPTH_AXIS_DIR=UP_DOWN
		ENERGY=6.00
		SSD=950.00
		WEDGE=None
		FIELD_INPLANE=100.00
		FIELD_CROSSPLANE=100.00
		FIELD_TYPE=RECTANGULAR
		GANTRY=0.00
		GANTRY_UPRIGHT_POSITION=0
		GANTRY_ROTATION=CW
		COLL_ANGLE=90.00
		COLL_OFFSET_INPLANE=0.00
		COLL_OFFSET_CROSSPLANE=0.00
		SCAN_DEVICE=STARCHECK
		ELECTROMETER=2D_ARRAY_INTERFACE
		DETECTOR=STARCHECK
		SCAN_CURVETYPE=CROSSPLANE_PROFILE
		SCAN_DEPTH=0.00
		SCAN_OFFAXIS_INPLANE=130.00
		SCAN_ANGLE=0.00
		SCAN_DIAGONAL=NOT_DIAGONAL
		MEAS_PRESET=TIME_PRESET
		MEAS_TIME=10.000
		MEAS_UNIT=GY
		PRESSURE=1013.25
		TEMPERATURE=20.00
		NORM_TEMPERATURE=20.00
		CORRECTION_FACTOR=1.0000
		CORRECTIONS=AIR_DENSITY_CORR;
		BEGIN_DATA
			-130.00		2.5234E-03
			-80.00		4.7397E-03
			-40.00		7.8134E-03
			40.00		7.5259E-03
			80.00		4.3437E-03
			130.00		2.7379E-03
		END_DATA
	END_SCAN  7
	BEGIN_SCAN  8
		TASK_NAME=MODE_INTERVAL
		PROGRAM=BeamAdjust 1.2
		MEAS_DATE=07-Oct-2010 13:56:03
		LINAC=A4
		MODALITY=X
		INPLANE_AXIS_DIR=TARGET_GUN
		CROSSPLANE_AXIS_DIR=LEFT_RIGHT
		DEPTH_AXIS_DIR=UP_DOWN
		ENERGY=6.00
		SSD=950.00
		WEDGE=None
		FIELD_INPLANE=100.00
		FIELD_CROSSPLANE=100.00
		FIELD_TYPE=RECTANGULAR
		GANTRY=0.00
		GANTRY_UPRIGHT_POSITION=0
		GANTRY_ROTATION=CW
		COLL_ANGLE=90.00
		COLL_OFFSET_INPLANE=0.00
		COLL_OFFSET_CROSSPLANE=0.00
		SCAN_DEVICE=STARCHECK
		ELECTROMETER=2D_ARRAY_INTERFACE
		DETECTOR=STARCHECK
		SCAN_CURVETYPE=INPLANE_PROFILE
		SCAN_DEPTH=0.00
		SCAN_OFFAXIS_CROSSPLANE=-130.00
		SCAN_ANGLE=0.00
		SCAN_DIAGONAL=NOT_DIAGONAL
		MEAS_PRESET=TIME_PRESET
		MEAS_TIME=10.000
		MEAS_UNIT=GY
		PRESSURE=1013.25
		TEMPERATURE=20.00
		NORM_TEMPERATURE=20.00
		CORRECTION_FACTOR=1.0000
		CORRECTIONS=AIR_DENSITY_CORR;
		BEGIN_DATA
			-130.00		2.4762E-03
			-125.00		2.7302E-03
			-120.00		3.0400E-03
			-115.00		3.5373E-03
			-110.00		3.3635E-03
			-105.00		3.4371E-03
			-100.00		4.0986E-03
			-95.00		4.4614E-03
			-90.00		5.1099E-03
			-85.00		4.4001E-03
			-80.00		4.5101E-03
			-75.00		4.8584E-03
			-70.00		5.3463E-03
			-65.00		5.1352E-03
			-60.00		5.4267E-03
			-55.00		5.9125E-03
			-50.00		4.7977E-03
			-45.00		4.6923E-03
			-40.00		5.0747E-03
			-35.00		6.0726E-03
			-30.00		5.7257E-03
			-25.00		5.3804E-03
			-20.00		5.7358E-03
			-15.00		5.2171E-03
			-10.00		5.4750E-03
			-5.00		6.6727E-03
			0.00		6.4572E-03
			5.00		6.9565E-03
			10.00		5.9233E-03
			15.00		6.0568E-03
			20.00		5.7890E-03
			25.00		5.8845E-03
			30.00		5.5289E-03
			35.00		6.1379E-03
			40.00		5.1338E-03
			45.00		5.6708E-03
			50.00		4.8763E-03
			55.00		5.2240E-03
			60.00		4.7097E-03
			65.00		4.6722E-03
			70.00		3.9359E-03
			75.00		4.3181E-03
			80.00		3.7082E-03
			85.00		3.5861E-03
			90.00		3.5798E-03
			95.00		3.7322E-03
			100.00		3.4074E-03
			105.00		2.8164E-03
			110.00		2.8214E-03
			115.00		2.9426E-03
			120.00		3.0464E-03
			125.00		2.5040E-03
			130.00		2.5234E-03
		END_DATA
	END_SCAN  8
	BEGIN_SCAN  9
		TASK_NAME=MODE_INTERVAL
		PROGRAM=BeamAdjust 1.2
		MEAS_DATE=07-Oct-2010 13:56:03
		LINAC=A4
		MODALITY=X
		INPLANE_AXIS_DIR=TARGET_GUN
		CROSSPLANE_AXIS_DIR=LEFT_RIGHT
		DEPTH_AXIS_DIR=UP_DOWN
		ENERGY=6.00
		SSD=950.00
		WEDGE=None
		FIELD_INPLANE=100.00
		FIELD_CROSSPLANE=100.00
		FIELD_TYPE=RECTANGULAR
		GANTRY=0.00
		GANTRY_UPRIGHT_POSITION=0
		GANTRY_ROTATION=CW
		COLL_ANGLE=90.00
		COLL_OFFSET_INPLANE=0.00
		COLL_OFFSET_CROSSPLANE=0.00
		SCAN_DEVICE=STARCHECK
		ELECTROMETER=2D_ARRAY_INTERFACE
		DETECTOR=STARCHECK
		SCAN_CURVETYPE=INPLANE_PROFILE
		SCAN_DEPTH=0.00
		SCAN_OFFAXIS_CROSSPLANE=-100.00
		SCAN_ANGLE=0.00
		SCAN_DIAGONAL=NOT_DIAGONAL
		MEAS_PRESET=TIME_PRESET
		MEAS_TIME=10.000
		MEAS_UNIT=GY
		PRESSURE=1013.25
		TEMPERATURE=20.00
		NORM_TEMPERATURE=20.00
		CORRECTION_FACTOR=1.0000
		CORRECTIONS=AIR_DENSITY_CORR;
		BEGIN_DATA
			-60.00		8.8170E-03
			-30.00		10.926E-03
			30.00		10.277E-03
			60.00		8.8202E-03
		END_DATA
	END_SCAN  9
	BEGIN_SCAN  10
		TASK_NAME=MODE_INTERVAL
		PROGRAM=BeamAdjust 1.2
		MEAS_DATE=07-Oct-2010 13:56:03
		LINAC=A4
		MODALITY=X
		INPLANE_AXIS_DIR=TARGET_GUN
		CROSSPLANE_AXIS_DIR=LEFT_RIGHT
		DEPTH_AXIS_DIR=UP_DOWN
		ENERGY=6.00
		SSD=950.00
		WEDGE=None
		FIELD_INPLANE=100.00
		FIELD_CROSSPLANE=100.00
		FIELD_TYPE=RECTANGULAR
		GANTRY=0.00
		GANTRY_UPRIGHT_POSITION=0
		GANTRY_ROTATION=CW
		COLL_ANGLE=90.00
		COLL_OFFSET_INPLANE=0.00
		COLL_OFFSET_CROSSPLANE=0.00
		SCAN_DEVICE=STARCHECK
		ELECTROMETER=2D_ARRAY_INTERFACE
		DETECTOR=STARCHECK
		SCAN_CURVETYPE=INPLANE_PROFILE
		SCAN_DEPTH=0.00
		SCAN_OFFAXIS_CROSSPLANE=-50.00
		SCAN_ANGLE=0.00
		SCAN_DIAGONAL=NOT_DIAGONAL
		MEAS_PRESET=TIME_PRESET
		MEAS_TIME=10.000
		MEAS_UNIT=GY
		PRESSURE=1013.25
		TEMPERATURE=20.00
		NORM_TEMPERATURE=20.00
		CORRECTION_FACTOR=1.0000
		CORRECTIONS=AIR_DENSITY_CORR;
		BEGIN_DATA
			-30.00		445.42E-03
			-15.00		442.10E-03
			15.00		432.01E-03
			30.00		421.45E-03
		END_DATA
	END_SCAN  10
	BEGIN_SCAN  11
		TASK_NAME=MODE_INTERVAL
		PROGRAM=BeamAdjust 1.2
		MEAS_DATE=07-Oct-2010 13:56:03
		LINAC=A4
		MODALITY=X
		INPLANE_AXIS_DIR=TARGET_GUN
		CROSSPLANE_AXIS_DIR=LEFT_RIGHT
		DEPTH_AXIS_DIR=UP_DOWN
		ENERGY=6.00
		SSD=950.00
		WEDGE=None
		FIELD_INPLANE=100.00
		FIELD_CROSSPLANE=100.00
		FIELD_TYPE=RECTANGULAR
		GANTRY=0.00
		GANTRY_UPRIGHT_POSITION=0
		GANTRY_ROTATION=CW
		COLL_ANGLE=90.00
		COLL_OFFSET_INPLANE=0.00
		COLL_OFFSET_CROSSPLANE=0.00
		SCAN_DEVICE=STARCHECK
		ELECTROMETER=2D_ARRAY_INTERFACE
		DETECTOR=STARCHECK
		SCAN_CURVETYPE=INPLANE_PROFILE
		SCAN_DEPTH=0.00
		SCAN_OFFAXIS_CROSSPLANE=0.00
		SCAN_ANGLE=0.00
		SCAN_DIAGONAL=NOT_DIAGONAL
		MEAS_PRESET=TIME_PRESET
		MEAS_TIME=10.000
		MEAS_UNIT=GY
		PRESSURE=1013.25
		TEMPERATURE=20.00
		NORM_TEMPERATURE=20.00
		CORRECTION_FACTOR=1.0000
		CORRECTIONS=AIR_DENSITY_CORR;
		BEGIN_DATA
			-126.00		9.4979E-03
			-123.00		8.9091E-03
			-120.00		10.230E-03
			-117.00		11.570E-03
			-114.00		12.172E-03
			-111.00		12.531E-03
			-108.00		13.995E-03
			-105.00		14.611E-03
			-102.00		16.046E-03
			-99.00		16.742E-03
			-96.00		18.318E-03
			-93.00		20.450E-03
			-90.00		22.007E-03
			-87.00		24.219E-03
			-84.00		25.701E-03
			-81.00		28.380E-03
			-78.00		30.591E-03
			-75.00		33.427E-03
			-72.00		36.939E-03
			-69.00		40.632E-03
			-66.00		46.044E-03
			-63.00		52.797E-03
			-60.00		62.559E-03
			-57.00		82.823E-03
			-54.00		133.54E-03
			-51.00		304.87E-03
			-48.00		556.28E-03
			-45.00		623.75E-03
			-42.00		642.93E-03
			-39.00		652.28E-03
			-36.00		657.78E-03
			-33.00		661.31E-03
			-30.00		664.63E-03
			-27.00		666.15E-03
			-24.00		665.18E-03
			-21.00		664.56E-03
			-18.00		670.96E-03
			-15.00		669.67E-03
			-12.00		670.66E-03
			-9.00		670.51E-03
			-6.00		667.99E-03
			0.00		668.01E-03
			6.00		672.63E-03
			9.00		671.37E-03
			12.00		670.95E-03
			15.00		668.46E-03
			18.00		664.01E-03
			21.00		664.06E-03
			24.00		660.79E-03
			27.00		662.02E-03
			30.00		658.07E-03
			33.00		656.09E-03
			36.00		653.44E-03
			39.00		642.62E-03
			42.00		630.47E-03
			45.00		596.53E-03
			48.00		434.03E-03
			51.00		188.72E-03
			54.00		98.678E-03
			57.00		70.328E-03
			60.00		56.709E-03
			63.00		48.878E-03
			66.00		43.572E-03
			69.00		38.904E-03
			72.00		35.233E-03
			75.00		31.955E-03
			78.00		28.062E-03
			81.00		26.569E-03
			84.00		24.518E-03
			87.00		22.933E-03
			90.00		21.267E-03
			93.00		19.767E-03
			96.00		18.172E-03
			99.00		16.901E-03
			102.00		15.132E-03
			105.00		14.142E-03
			108.00		13.635E-03
			111.00		12.625E-03
			114.00		11.797E-03
			117.00		11.008E-03
			120.00		10.358E-03
			123.00		9.5859E-03
			126.00		8.7578E-03
		END_DATA
	END_SCAN  11
	BEGIN_SCAN  12
		TASK_NAME=MODE_INTERVAL
		PROGRAM=BeamAdjust 1.2
		MEAS_DATE=07-Oct-2010 13:56:03
		LINAC=A4
		MODALITY=X
		INPLANE_AXIS_DIR=TARGET_GUN
		CROSSPLANE_AXIS_DIR=LEFT_RIGHT
		DEPTH_AXIS_DIR=UP_DOWN
		ENERGY=6.00
		SSD=950.00
		WEDGE=None
		FIELD_INPLANE=100.00
		FIELD_CROSSPLANE=100.00
		FIELD_TYPE=RECTANGULAR
		GANTRY=0.00
		GANTRY_UPRIGHT_POSITION=0
		GANTRY_ROTATION=CW
		COLL_ANGLE=90.00
		COLL_OFFSET_INPLANE=0.00
		COLL_OFFSET_CROSSPLANE=0.00
		SCAN_DEVICE=STARCHECK
		ELECTROMETER=2D_ARRAY_INTERFACE
		DETECTOR=STARCHECK
		SCAN_CURVETYPE=INPLANE_PROFILE
		SCAN_DEPTH=0.00
		SCAN_OFFAXIS_CROSSPLANE=50.00
		SCAN_ANGLE=0.00
		SCAN_DIAGONAL=NOT_DIAGONAL
		MEAS_PRESET=TIME_PRESET
		MEAS_TIME=10.000
		MEAS_UNIT=GY
		PRESSURE=1013.25
		TEMPERATURE=20.00
		NORM_TEMPERATURE=20.00
		CORRECTION_FACTOR=1.0000
		CORRECTIONS=AIR_DENSITY_CORR;
		BEGIN_DATA
			-30.00		277.18E-03
			-15.00		286.20E-03
			15.00		293.62E-03
			30.00		295.14E-03
		END_DATA
	END_SCAN  12
	BEGIN_SCAN  13
		TASK_NAME=MODE_INTERVAL
		PROGRAM=BeamAdjust 1.2
		MEAS_DATE=07-Oct-2010 13:56:03
		LINAC=A4
		MODALITY=X
		INPLANE_AXIS_DIR=TARGET_GUN
		CROSSPLANE_AXIS_DIR=LEFT_RIGHT
		DEPTH_AXIS_DIR=UP_DOWN
		ENERGY=6.00
		SSD=950.00
		WEDGE=None
		FIELD_INPLANE=100.00
		FIELD_CROSSPLANE=100.00
		FIELD_TYPE=RECTANGULAR
		GANTRY=0.00
		GANTRY_UPRIGHT_POSITION=0
		GANTRY_ROTATION=CW
		COLL_ANGLE=90.00
		COLL_OFFSET_INPLANE=0.00
		COLL_OFFSET_CROSSPLANE=0.00
		SCAN_DEVICE=STARCHECK
		ELECTROMETER=2D_ARRAY_INTERFACE
		DETECTOR=STARCHECK
		SCAN_CURVETYPE=INPLANE_PROFILE
		SCAN_DEPTH=0.00
		SCAN_OFFAXIS_CROSSPLANE=100.00
		SCAN_ANGLE=0.00
		SCAN_DIAGONAL=NOT_DIAGONAL
		MEAS_PRESET=TIME_PRESET
		MEAS_TIME=10.000
		MEAS_UNIT=GY
		PRESSURE=1013.25
		TEMPERATURE=20.00
		NORM_TEMPERATURE=20.00
		CORRECTION_FACTOR=1.0000
		CORRECTIONS=AIR_DENSITY_CORR;
		BEGIN_DATA
			-60.00		8.0528E-03
			-30.00		10.358E-03
			30.00		10.464E-03
			60.00		7.3397E-03
		END_DATA
	END_SCAN  13
	BEGIN_SCAN  14
		TASK_NAME=MODE_INTERVAL
		PROGRAM=BeamAdjust 1.2
		MEAS_DATE=07-Oct-2010 13:56:03
		LINAC=A4
		MODALITY=X
		INPLANE_AXIS_DIR=TARGET_GUN
		CROSSPLANE_AXIS_DIR=LEFT_RIGHT
		DEPTH_AXIS_DIR=UP_DOWN
		ENERGY=6.00
		SSD=950.00
		WEDGE=None
		FIELD_INPLANE=100.00
		FIELD_CROSSPLANE=100.00
		FIELD_TYPE=RECTANGULAR
		GANTRY=0.00
		GANTRY_UPRIGHT_POSITION=0
		GANTRY_ROTATION=CW
		COLL_ANGLE=90.00
		COLL_OFFSET_INPLANE=0.00
		COLL_OFFSET_CROSSPLANE=0.00
		SCAN_DEVICE=STARCHECK
		ELECTROMETER=2D_ARRAY_INTERFACE
		DETECTOR=STARCHECK
		SCAN_CURVETYPE=INPLANE_PROFILE
		SCAN_DEPTH=0.00
		SCAN_OFFAXIS_CROSSPLANE=130.00
		SCAN_ANGLE=0.00
		SCAN_DIAGONAL=NOT_DIAGONAL
		MEAS_PRESET=TIME_PRESET
		MEAS_TIME=10.000
		MEAS_UNIT=GY
		PRESSURE=1013.25
		TEMPERATURE=20.00
		NORM_TEMPERATURE=20.00
		CORRECTION_FACTOR=1.0000
		CORRECTIONS=AIR_DENSITY_CORR;
		BEGIN_DATA
			-130.00		1.6995E-03
			-125.00		2.9232E-03
			-120.00		2.2674E-03
			-115.00		2.8338E-03
			-110.00		2.7432E-03
			-105.00		2.9963E-03
			-100.00		3.1026E-03
			-95.00		3.2171E-03
			-90.00		2.9324E-03
			-85.00		4.0996E-03
			-80.00		4.2123E-03
			-75.00		4.1095E-03
			-70.00		4.0015E-03
			-65.00		4.1458E-03
			-60.00		4.8140E-03
			-55.00		4.7502E-03
			-50.00		4.5071E-03
			-45.00		5.1518E-03
			-40.00		5.0147E-03
			-35.00		5.0214E-03
			-30.00		5.2978E-03
			-25.00		5.5132E-03
			-20.00		5.5349E-03
			-15.00		5.4092E-03
			-10.00		5.3867E-03
			-5.00		5.8907E-03
			0.00		6.1934E-03
			5.00		6.0891E-03
			10.00		5.8403E-03
			15.00		5.1100E-03
			20.00		5.6458E-03
			25.00		5.5369E-03
			30.00		4.6391E-03
			35.00		5.2494E-03
			40.00		5.6431E-03
			45.00		4.4408E-03
			50.00		5.0079E-03
			55.00		5.0613E-03
			60.00		5.1608E-03
			65.00		3.8022E-03
			70.00		4.2614E-03
			75.00		3.9521E-03
			80.00		4.2098E-03
			85.00		3.6862E-03
			90.00		3.4312E-03
			95.00		2.9822E-03
			100.00		3.8022E-03
			105.00		2.7906E-03
			110.00		2.8453E-03
			115.00		2.5414E-03
			120.00		2.7640E-03
			125.00		1.9069E-03
			130.00		2.7379E-03
		END_DATA
	END_SCAN  14
	BEGIN_SCAN  15
		TASK_NAME=MODE_INTERVAL
		PROGRAM=BeamAdjust 1.2
		MEAS_DATE=07-Oct-2010 13:56:03
		LINAC=A4
		MODALITY=X
		INPLANE_AXIS_DIR=TARGET_GUN
		CROSSPLANE_AXIS_DIR=LEFT_RIGHT
		DEPTH_AXIS_DIR=UP_DOWN
		ENERGY=6.00
		SSD=950.00
		WEDGE=None
		FIELD_INPLANE=100.00
		FIELD_CROSSPLANE=100.00
		FIELD_TYPE=RECTANGULAR
		GANTRY=0.00
		GANTRY_UPRIGHT_POSITION=0
		GANTRY_ROTATION=CW
		COLL_ANGLE=90.00
		COLL_OFFSET_INPLANE=0.00
		COLL_OFFSET_CROSSPLANE=0.00
		SCAN_DEVICE=STARCHECK
		ELECTROMETER=2D_ARRAY_INTERFACE
		DETECTOR=STARCHECK
		SCAN_CURVETYPE=INPLANE_PROFILE
		SCAN_DEPTH=0.00
		SCAN_OFFAXIS_CROSSPLANE=0.00
		SCAN_ANGLE=0.00
		SCAN_DIAGONAL=FIRST_DIAGONAL
		MEAS_PRESET=TIME_PRESET
		MEAS_TIME=10.000
		MEAS_UNIT=GY
		PRESSURE=1013.25
		TEMPERATURE=20.00
		NORM_TEMPERATURE=20.00
		CORRECTION_FACTOR=1.0000
		CORRECTIONS=AIR_DENSITY_CORR;
		BEGIN_DATA
			-172.40		3.3346E-03
			-169.40		3.1075E-03
			-166.40		4.0476E-03
			-163.40		3.7868E-03
			-160.40		4.0310E-03
			-157.40		4.0737E-03
			-154.40		4.0474E-03
			-151.40		4.3477E-03
			-148.40		4.7887E-03
			-145.40		5.1956E-03
			-142.40		5.8081E-03
			-139.40		6.1556E-03
			-136.40		6.1659E-03
			-133.40		7.4055E-03
			-130.40		7.9093E-03
			-127.40		7.6108E-03
			-124.40		8.5081E-03
			-121.40		9.2307E-03
			-118.40		10.087E-03
			-115.40		11.098E-03
			-112.40		11.705E-03
			-109.40		12.932E-03
			-106.40		14.308E-03
			-103.40		14.681E-03
			-100.40		16.313E-03
			-97.40		18.397E-03
			-94.40		20.700E-03
			-91.40		22.693E-03
			-88.40		26.111E-03
			-85.40		28.524E-03
			-82.40		33.643E-03
			-79.40		40.093E-03
			-76.40		55.189E-03
			-73.40		100.97E-03
			-70.40		254.43E-03
			-67.40		462.52E-03
			-64.40		571.29E-03
			-61.40		609.14E-03
			-58.40		627.11E-03
			-55.40		637.55E-03
			-52.40		644.34E-03
			-49.40		649.42E-03
			-46.40		651.65E-03
			-43.40		654.02E-03
			-40.40		656.81E-03
			-37.40		661.45E-03
			-34.40		661.11E-03
			-31.40		663.04E-03
			-28.40		661.30E-03
			-25.40		664.47E-03
			-22.40		664.36E-03
			-19.40		665.51E-03
			-16.40		669.18E-03
			-13.40		671.50E-03
			0.00		668.01E-03
			13.40		671.52E-03
			16.40		667.72E-03
			19.40		666.70E-03
			22.40		665.71E-03
			25.40		664.56E-03
			28.40		664.05E-03
			31.40		661.15E-03
			34.40		658.23E-03
			37.40		660.68E-03
			40.40		657.74E-03
			43.40		654.14E-03
			46.40		652.63E-03
			49.40		646.48E-03
			52.40		640.58E-03
			55.40		628.51E-03
			58.40		612.80E-03
			61.40		576.07E-03
			64.40		474.93E-03
			67.40		279.63E-03
			70.40		115.19E-03
			73.40		59.519E-03
			76.40		42.272E-03
			79.40		34.208E-03
			82.40		29.497E-03
			85.40		25.915E-03
			88.40		23.401E-03
			91.40		20.607E-03
			94.40		19.213E-03
			97.40		17.034E-03
			100.40		15.922E-03
			103.40		14.543E-03
			106.40		13.097E-03
			109.40		11.836E-03
			112.40		10.936E-03
			115.40		9.9527E-03
			118.40		8.7895E-03
			121.40		8.4617E-03
			124.40		8.0604E-03
			127.40		7.5134E-03
			130.40		7.6684E-03
			133.40		6.3396E-03
			136.40		5.3527E-03
			139.40		5.2051E-03
			142.40		5.6283E-03
			145.40		4.8798E-03
			148.40		4.8027E-03
			151.40		4.4247E-03
			154.40		4.0315E-03
			157.40		3.7954E-03
			160.40		2.8464E-03
			163.40		2.9847E-03
			166.40		2.7755E-03
			169.40		3.2117E-03
			172.40		2.9563E-03
		END_DATA
	END_SCAN  15
	BEGIN_SCAN  16
		TASK_NAME=MODE_INTERVAL
		PROGRAM=BeamAdjust 1.2
		MEAS_DATE=07-Oct-2010 13:56:03
		LINAC=A4
		MODALITY=X
		INPLANE_AXIS_DIR=GUN_TARGET
		CROSSPLANE_AXIS_DIR=LEFT_RIGHT
		DEPTH_AXIS_DIR=UP_DOWN
		ENERGY=6.00
		SSD=950.00
		WEDGE=None
		FIELD_INPLANE=100.00
		FIELD_CROSSPLANE=100.00
		FIELD_TYPE=RECTANGULAR
		GANTRY=0.00
		GANTRY_UPRIGHT_POSITION=0
		GANTRY_ROTATION=CW
		COLL_ANGLE=90.00
		COLL_OFFSET_INPLANE=0.00
		COLL_OFFSET_CROSSPLANE=0.00
		SCAN_DEVICE=STARCHECK
		ELECTROMETER=2D_ARRAY_INTERFACE
		DETECTOR=STARCHECK
		SCAN_CURVETYPE=INPLANE_PROFILE
		SCAN_DEPTH=0.00
		SCAN_OFFAXIS_CROSSPLANE=0.00
		SCAN_ANGLE=0.00
		SCAN_DIAGONAL=SECOND_DIAGONAL
		MEAS_PRESET=TIME_PRESET
		MEAS_TIME=10.000
		MEAS_UNIT=GY
		PRESSURE=1013.25
		TEMPERATURE=20.00
		NORM_TEMPERATURE=20.00
		CORRECTION_FACTOR=1.0000
		CORRECTIONS=AIR_DENSITY_CORR;
		BEGIN_DATA
			-172.40		2.8637E-03
			-169.40		3.1900E-03
			-166.40		3.0977E-03
			-163.40		3.2407E-03
			-160.40		3.5391E-03
			-157.40		3.7281E-03
			-154.40		4.0300E-03
			-151.40		4.2708E-03
			-148.40		4.6377E-03
			-145.40		5.0984E-03
			-142.40		5.3463E-03
			-139.40		5.5247E-03
			-136.40		5.7525E-03
			-133.40		7.0374E-03
			-130.40		6.8855E-03
			-127.40		7.8876E-03
			-124.40		8.4207E-03
			-121.40		9.0105E-03
			-118.40		9.5793E-03
			-115.40		9.8148E-03
			-112.40		10.567E-03
			-109.40		12.158E-03
			-106.40		13.136E-03
			-103.40		14.406E-03
			-100.40		15.971E-03
			-97.40		17.142E-03
			-94.40		18.730E-03
			-91.40		21.892E-03
			-88.40		22.925E-03
			-85.40		26.091E-03
			-82.40		29.966E-03
			-79.40		35.493E-03
			-76.40		45.125E-03
			-73.40		68.400E-03
			-70.40		152.17E-03
			-67.40		353.69E-03
			-64.40		527.61E-03
			-61.40		596.56E-03
			-58.40		625.32E-03
			-55.40		637.39E-03
			-52.40		648.62E-03
			-49.40		653.69E-03
			-46.40		656.86E-03
			-43.40		659.71E-03
			-40.40		662.07E-03
			-37.40		665.31E-03
			-34.40		665.24E-03
			-31.40		665.79E-03
			-28.40		668.31E-03
			-25.40		666.82E-03
			-22.40		665.00E-03
			-19.40		668.43E-03
			-16.40		670.47E-03
			-13.40		672.80E-03
			0.00		668.01E-03
			13.40		671.77E-03
			16.40		669.45E-03
			19.40		665.15E-03
			22.40		662.48E-03
			25.40		662.70E-03
			28.40		661.30E-03
			31.40		659.72E-03
			34.40		657.18E-03
			37.40		656.04E-03
			40.40		654.55E-03
			43.40		652.70E-03
			46.40		650.67E-03
			49.40		646.68E-03
			52.40		638.41E-03
			55.40		629.70E-03
			58.40		618.66E-03
			61.40		590.30E-03
			64.40		518.15E-03
			67.40		356.86E-03
			70.40		162.73E-03
			73.40		72.864E-03
			76.40		46.758E-03
			79.40		36.386E-03
			82.40		31.743E-03
			85.40		27.591E-03
			88.40		24.586E-03
			91.40		22.394E-03
			94.40		19.844E-03
			97.40		18.167E-03
			100.40		15.904E-03
			103.40		14.293E-03
			106.40		13.516E-03
			109.40		12.230E-03
			112.40		11.282E-03
			115.40		10.298E-03
			118.40		9.6563E-03
			121.40		8.8120E-03
			124.40		7.9315E-03
			127.40		7.4926E-03
			130.40		7.4428E-03
			133.40		6.7029E-03
			136.40		6.0391E-03
			139.40		6.5744E-03
			142.40		5.5548E-03
			145.40		5.4599E-03
			148.40		4.8877E-03
			151.40		4.5138E-03
			154.40		4.2421E-03
			157.40		4.1297E-03
			160.40		3.6008E-03
			163.40		3.9860E-03
			166.40		3.7653E-03
			169.40		3.1642E-03
			172.40		2.5954E-03
		END_DATA
	END_SCAN  16
END_SCAN_DATA
