BEGIN_SCAN_DATA
	FORMAT=CC-Export V1.9                  
	FILE_CREATION_DATE=07-Oct-2010 13:56:49
	LAST_MODIFIED=07-Oct-2010 13:56:49
	BEGIN_SCAN  1
		TASK_NAME=MODE_INTERVAL
		PROGRAM=BeamAdjust 1.2
		MEAS_DATE=07-Oct-2010 13:56:49
		LINAC=A4
		MODALITY=X
		INPLANE_AXIS_DIR=TARGET_GUN
		CROSSPLANE_AXIS_DIR=LEFT_RIGHT
		DEPTH_AXIS_DIR=UP_DOWN
		ENERGY=6.00
		SSD=950.00
		WEDGE=None
		FIELD_INPLANE=100.00
		FIELD_CROSSPLANE=100.00
		FIELD_TYPE=RECTANGULAR
		GANTRY=0.00
		GANTRY_UPRIGHT_POSITION=0
		GANTRY_ROTATION=CW
		COLL_ANGLE=90.00
		COLL_OFFSET_INPLANE=0.00
		COLL_OFFSET_CROSSPLANE=0.00
		SCAN_DEVICE=STARCHECK
		ELECTROMETER=2D_ARRAY_INTERFACE
		DETECTOR=STARCHECK
		SCAN_CURVETYPE=CROSSPLANE_PROFILE
		SCAN_DEPTH=0.00
		SCAN_OFFAXIS_INPLANE=-130.00
		SCAN_ANGLE=0.00
		SCAN_DIAGONAL=NOT_DIAGONAL
		MEAS_PRESET=TIME_PRESET
		MEAS_TIME=10.000
		MEAS_UNIT=GY
		PRESSURE=1013.25
		TEMPERATURE=20.00
		NORM_TEMPERATURE=20.00
		CORRECTION_FACTOR=1.0000
		CORRECTIONS=AIR_DENSITY_CORR;
		BEGIN_DATA
			-130.00		2.3010E-03
			-80.00		4.6034E-03
			-40.00		7.5831E-03
			40.00		6.7252E-03
			80.00		3.8190E-03
			130.00		1.8806E-03
		END_DATA
	END_SCAN  1
	BEGIN_SCAN  2
		TASK_NAME=MODE_INTERVAL
		PROGRAM=BeamAdjust 1.2
		MEAS_DATE=07-Oct-2010 13:56:49
		LINAC=A4
		MODALITY=X
		INPLANE_AXIS_DIR=TARGET_GUN
		CROSSPLANE_AXIS_DIR=LEFT_RIGHT
		DEPTH_AXIS_DIR=UP_DOWN
		ENERGY=6.00
		SSD=950.00
		WEDGE=None
		FIELD_INPLANE=100.00
		FIELD_CROSSPLANE=100.00
		FIELD_TYPE=RECTANGULAR
		GANTRY=0.00
		GANTRY_UPRIGHT_POSITION=0
		GANTRY_ROTATION=CW
		COLL_ANGLE=90.00
		COLL_OFFSET_INPLANE=0.00
		COLL_OFFSET_CROSSPLANE=0.00
		SCAN_DEVICE=STARCHECK
		ELECTROMETER=2D_ARRAY_INTERFACE
		DETECTOR=STARCHECK
		SCAN_CURVETYPE=CROSSPLANE_PROFILE
		SCAN_DEPTH=0.00
		SCAN_OFFAXIS_INPLANE=-100.00
		SCAN_ANGLE=0.00
		SCAN_DIAGONAL=NOT_DIAGONAL
		MEAS_PRESET=TIME_PRESET
		MEAS_TIME=10.000
		MEAS_UNIT=GY
		PRESSURE=1013.25
		TEMPERATURE=20.00
		NORM_TEMPERATURE=20.00
		CORRECTION_FACTOR=1.0000
		CORRECTIONS=AIR_DENSITY_CORR;
		BEGIN_DATA
			-60.00		10.533E-03
			-30.00		14.535E-03
			30.00		15.265E-03
			60.00		9.9447E-03
		END_DATA
	END_SCAN  2
	BEGIN_SCAN  3
		TASK_NAME=MODE_INTERVAL
		PROGRAM=BeamAdjust 1.2
		MEAS_DATE=07-Oct-2010 13:56:49
		LINAC=A4
		MODALITY=X
		INPLANE_AXIS_DIR=TARGET_GUN
		CROSSPLANE_AXIS_DIR=LEFT_RIGHT
		DEPTH_AXIS_DIR=UP_DOWN
		ENERGY=6.00
		SSD=950.00
		WEDGE=None
		FIELD_INPLANE=100.00
		FIELD_CROSSPLANE=100.00
		FIELD_TYPE=RECTANGULAR
		GANTRY=0.00
		GANTRY_UPRIGHT_POSITION=0
		GANTRY_ROTATION=CW
		COLL_ANGLE=90.00
		COLL_OFFSET_INPLANE=0.00
		COLL_OFFSET_CROSSPLANE=0.00
		SCAN_DEVICE=STARCHECK
		ELECTROMETER=2D_ARRAY_INTERFACE
		DETECTOR=STARCHECK
		SCAN_CURVETYPE=CROSSPLANE_PROFILE
		SCAN_DEPTH=0.00
		SCAN_OFFAXIS_INPLANE=-50.00
		SCAN_ANGLE=0.00
		SCAN_DIAGONAL=NOT_DIAGONAL
		MEAS_PRESET=TIME_PRESET
		MEAS_TIME=10.000
		MEAS_UNIT=GY
		PRESSURE=1013.25
		TEMPERATURE=20.00
		NORM_TEMPERATURE=20.00
		CORRECTION_FACTOR=1.0000
		CORRECTIONS=AIR_DENSITY_CORR;
		BEGIN_DATA
			-30.00		393.30E-03
			-15.00		356.31E-03
			15.00		383.66E-03
			30.00		388.01E-03
		END_DATA
	END_SCAN  3
	BEGIN_SCAN  4
		TASK_NAME=MODE_INTERVAL
		PROGRAM=BeamAdjust 1.2
		MEAS_DATE=07-Oct-2010 13:56:49
		LINAC=A4
		MODALITY=X
		INPLANE_AXIS_DIR=TARGET_GUN
		CROSSPLANE_AXIS_DIR=LEFT_RIGHT
		DEPTH_AXIS_DIR=UP_DOWN
		ENERGY=6.00
		SSD=950.00
		WEDGE=None
		FIELD_INPLANE=100.00
		FIELD_CROSSPLANE=100.00
		FIELD_TYPE=RECTANGULAR
		GANTRY=0.00
		GANTRY_UPRIGHT_POSITION=0
		GANTRY_ROTATION=CW
		COLL_ANGLE=90.00
		COLL_OFFSET_INPLANE=0.00
		COLL_OFFSET_CROSSPLANE=0.00
		SCAN_DEVICE=STARCHECK
		ELECTROMETER=2D_ARRAY_INTERFACE
		DETECTOR=STARCHECK
		SCAN_CURVETYPE=CROSSPLANE_PROFILE
		SCAN_DEPTH=0.00
		SCAN_OFFAXIS_INPLANE=0.00
		SCAN_ANGLE=0.00
		SCAN_DIAGONAL=NOT_DIAGONAL
		MEAS_PRESET=TIME_PRESET
		MEAS_TIME=10.000
		MEAS_UNIT=GY
		PRESSURE=1013.25
		TEMPERATURE=20.00
		NORM_TEMPERATURE=20.00
		CORRECTION_FACTOR=1.0000
		CORRECTIONS=AIR_DENSITY_CORR;
		BEGIN_DATA
			-126.00		7.3497E-03
			-123.00		8.3701E-03
			-120.00		8.1632E-03
			-117.00		8.8106E-03
			-114.00		9.3459E-03
			-111.00		9.9087E-03
			-108.00		10.658E-03
			-105.00		11.265E-03
			-102.00		12.553E-03
			-99.00		13.426E-03
			-96.00		14.509E-03
			-93.00		16.041E-03
			-90.00		17.409E-03
			-87.00		18.907E-03
			-84.00		21.095E-03
			-81.00		22.968E-03
			-78.00		24.889E-03
			-75.00		27.936E-03
			-72.00		31.079E-03
			-69.00		35.978E-03
			-66.00		41.243E-03
			-63.00		47.562E-03
			-60.00		59.157E-03
			-57.00		80.445E-03
			-54.00		138.46E-03
			-51.00		380.72E-03
			-48.00		584.10E-03
			-45.00		624.57E-03
			-42.00		639.29E-03
			-39.00		650.04E-03
			-36.00		655.61E-03
			-33.00		655.49E-03
			-30.00		656.91E-03
			-27.00		659.58E-03
			-24.00		662.36E-03
			-21.00		661.71E-03
			-18.00		667.76E-03
			-15.00		667.84E-03
			-12.00		667.21E-03
			-9.00		669.13E-03
			-6.00		668.18E-03
			0.00		667.48E-03
			6.00		671.69E-03
			9.00		669.88E-03
			12.00		667.63E-03
			15.00		666.28E-03
			18.00		665.88E-03
			21.00		664.01E-03
			24.00		660.42E-03
			27.00		664.63E-03
			30.00		662.41E-03
			33.00		659.92E-03
			36.00		655.69E-03
			39.00		648.74E-03
			42.00		634.53E-03
			45.00		600.36E-03
			48.00		452.87E-03
			51.00		167.30E-03
			54.00		88.311E-03
			57.00		63.072E-03
			60.00		50.336E-03
			63.00		42.464E-03
			66.00		36.235E-03
			69.00		32.320E-03
			72.00		28.480E-03
			75.00		25.688E-03
			78.00		23.034E-03
			81.00		21.172E-03
			84.00		19.079E-03
			87.00		17.255E-03
			90.00		17.321E-03
			93.00		14.832E-03
			96.00		13.418E-03
			99.00		12.584E-03
			102.00		12.123E-03
			105.00		10.801E-03
			108.00		10.313E-03
			111.00		9.2804E-03
			114.00		8.7410E-03
			117.00		8.0597E-03
			120.00		7.0630E-03
			123.00		7.4748E-03
			126.00		7.2366E-03
		END_DATA
	END_SCAN  4
	BEGIN_SCAN  5
		TASK_NAME=MODE_INTERVAL
		PROGRAM=BeamAdjust 1.2
		MEAS_DATE=07-Oct-2010 13:56:49
		LINAC=A4
		MODALITY=X
		INPLANE_AXIS_DIR=TARGET_GUN
		CROSSPLANE_AXIS_DIR=LEFT_RIGHT
		DEPTH_AXIS_DIR=UP_DOWN
		ENERGY=6.00
		SSD=950.00
		WEDGE=None
		FIELD_INPLANE=100.00
		FIELD_CROSSPLANE=100.00
		FIELD_TYPE=RECTANGULAR
		GANTRY=0.00
		GANTRY_UPRIGHT_POSITION=0
		GANTRY_ROTATION=CW
		COLL_ANGLE=90.00
		COLL_OFFSET_INPLANE=0.00
		COLL_OFFSET_CROSSPLANE=0.00
		SCAN_DEVICE=STARCHECK
		ELECTROMETER=2D_ARRAY_INTERFACE
		DETECTOR=STARCHECK
		SCAN_CURVETYPE=CROSSPLANE_PROFILE
		SCAN_DEPTH=0.00
		SCAN_OFFAXIS_INPLANE=50.00
		SCAN_ANGLE=0.00
		SCAN_DIAGONAL=NOT_DIAGONAL
		MEAS_PRESET=TIME_PRESET
		MEAS_TIME=10.000
		MEAS_UNIT=GY
		PRESSURE=1013.25
		TEMPERATURE=20.00
		NORM_TEMPERATURE=20.00
		CORRECTION_FACTOR=1.0000
		CORRECTIONS=AIR_DENSITY_CORR;
		BEGIN_DATA
			-30.00		270.51E-03
			-15.00		284.87E-03
			15.00		254.96E-03
			30.00		257.78E-03
		END_DATA
	END_SCAN  5
	BEGIN_SCAN  6
		TASK_NAME=MODE_INTERVAL
		PROGRAM=BeamAdjust 1.2
		MEAS_DATE=07-Oct-2010 13:56:49
		LINAC=A4
		MODALITY=X
		INPLANE_AXIS_DIR=TARGET_GUN
		CROSSPLANE_AXIS_DIR=LEFT_RIGHT
		DEPTH_AXIS_DIR=UP_DOWN
		ENERGY=6.00
		SSD=950.00
		WEDGE=None
		FIELD_INPLANE=100.00
		FIELD_CROSSPLANE=100.00
		FIELD_TYPE=RECTANGULAR
		GANTRY=0.00
		GANTRY_UPRIGHT_POSITION=0
		GANTRY_ROTATION=CW
		COLL_ANGLE=90.00
		COLL_OFFSET_INPLANE=0.00
		COLL_OFFSET_CROSSPLANE=0.00
		SCAN_DEVICE=STARCHECK
		ELECTROMETER=2D_ARRAY_INTERFACE
		DETECTOR=STARCHECK
		SCAN_CURVETYPE=CROSSPLANE_PROFILE
		SCAN_DEPTH=0.00
		SCAN_OFFAXIS_INPLANE=100.00
		SCAN_ANGLE=0.00
		SCAN_DIAGONAL=NOT_DIAGONAL
		MEAS_PRESET=TIME_PRESET
		MEAS_TIME=10.000
		MEAS_UNIT=GY
		PRESSURE=1013.25
		TEMPERATURE=20.00
		NORM_TEMPERATURE=20.00
		CORRECTION_FACTOR=1.0000
		CORRECTIONS=AIR_DENSITY_CORR;
		BEGIN_DATA
			-60.00		10.906E-03
			-30.00		15.113E-03
			30.00		15.007E-03
			60.00		9.2705E-03
		END_DATA
	END_SCAN  6
	BEGIN_SCAN  7
		TASK_NAME=MODE_INTERVAL
		PROGRAM=BeamAdjust 1.2
		MEAS_DATE=07-Oct-2010 13:56:49
		LINAC=A4
		MODALITY=X
		INPLANE_AXIS_DIR=TARGET_GUN
		CROSSPLANE_AXIS_DIR=LEFT_RIGHT
		DEPTH_AXIS_DIR=UP_DOWN
		ENERGY=6.00
		SSD=950.00
		WEDGE=None
		FIELD_INPLANE=100.00
		FIELD_CROSSPLANE=100.00
		FIELD_TYPE=RECTANGULAR
		GANTRY=0.00
		GANTRY_UPRIGHT_POSITION=0
		GANTRY_ROTATION=CW
		COLL_ANGLE=90.00
		COLL_OFFSET_INPLANE=0.00
		COLL_OFFSET_CROSSPLANE=0.00
		SCAN_DEVICE=STARCHECK
		ELECTROMETER=2D_ARRAY_INTERFACE
		DETECTOR=STARCHECK
		SCAN_CURVETYPE=CROSSPLANE_PROFILE
		SCAN_DEPTH=0.00
		SCAN_OFFAXIS_INPLANE=130.00
		SCAN_ANGLE=0.00
		SCAN_DIAGONAL=NOT_DIAGONAL
		MEAS_PRESET=TIME_PRESET
		MEAS_TIME=10.000
		MEAS_UNIT=GY
		PRESSURE=1013.25
		TEMPERATURE=20.00
		NORM_TEMPERATURE=20.00
		CORRECTION_FACTOR=1.0000
		CORRECTIONS=AIR_DENSITY_CORR;
		BEGIN_DATA
			-130.00		2.0818E-03
			-80.00		4.3367E-03
			-40.00		7.2941E-03
			40.00		7.6060E-03
			80.00		4.3021E-03
			130.00		2.1185E-03
		END_DATA
	END_SCAN  7
	BEGIN_SCAN  8
		TASK_NAME=MODE_INTERVAL
		PROGRAM=BeamAdjust 1.2
		MEAS_DATE=07-Oct-2010 13:56:49
		LINAC=A4
		MODALITY=X
		INPLANE_AXIS_DIR=TARGET_GUN
		CROSSPLANE_AXIS_DIR=LEFT_RIGHT
		DEPTH_AXIS_DIR=UP_DOWN
		ENERGY=6.00
		SSD=950.00
		WEDGE=None
		FIELD_INPLANE=100.00
		FIELD_CROSSPLANE=100.00
		FIELD_TYPE=RECTANGULAR
		GANTRY=0.00
		GANTRY_UPRIGHT_POSITION=0
		GANTRY_ROTATION=CW
		COLL_ANGLE=90.00
		COLL_OFFSET_INPLANE=0.00
		COLL_OFFSET_CROSSPLANE=0.00
		SCAN_DEVICE=STARCHECK
		ELECTROMETER=2D_ARRAY_INTERFACE
		DETECTOR=STARCHECK
		SCAN_CURVETYPE=INPLANE_PROFILE
		SCAN_DEPTH=0.00
		SCAN_OFFAXIS_CROSSPLANE=-130.00
		SCAN_ANGLE=0.00
		SCAN_DIAGONAL=NOT_DIAGONAL
		MEAS_PRESET=TIME_PRESET
		MEAS_TIME=10.000
		MEAS_UNIT=GY
		PRESSURE=1013.25
		TEMPERATURE=20.00
		NORM_TEMPERATURE=20.00
		CORRECTION_FACTOR=1.0000
		CORRECTIONS=AIR_DENSITY_CORR;
		BEGIN_DATA
			-130.00		2.3010E-03
			-125.00		2.9016E-03
			-120.00		3.0785E-03
			-115.00		3.5994E-03
			-110.00		3.3561E-03
			-105.00		4.0102E-03
			-100.00		4.4049E-03
			-95.00		4.3871E-03
			-90.00		4.6614E-03
			-85.00		4.8480E-03
			-80.00		4.7296E-03
			-75.00		4.9232E-03
			-70.00		4.8022E-03
			-65.00		5.4088E-03
			-60.00		5.4738E-03
			-55.00		6.1425E-03
			-50.00		4.5220E-03
			-45.00		4.9699E-03
			-40.00		4.8517E-03
			-35.00		5.8788E-03
			-30.00		5.6453E-03
			-25.00		5.4738E-03
			-20.00		5.5402E-03
			-15.00		5.5837E-03
			-10.00		5.9265E-03
			-5.00		6.4008E-03
			0.00		6.2085E-03
			5.00		6.7320E-03
			10.00		5.9589E-03
			15.00		5.8490E-03
			20.00		6.1355E-03
			25.00		5.6805E-03
			30.00		5.6916E-03
			35.00		5.5761E-03
			40.00		5.4187E-03
			45.00		5.0513E-03
			50.00		5.2749E-03
			55.00		4.9134E-03
			60.00		5.1431E-03
			65.00		4.4827E-03
			70.00		3.8527E-03
			75.00		4.3196E-03
			80.00		3.9697E-03
			85.00		3.7064E-03
			90.00		3.5946E-03
			95.00		3.6858E-03
			100.00		3.5747E-03
			105.00		2.7088E-03
			110.00		3.0108E-03
			115.00		2.6515E-03
			120.00		2.8174E-03
			125.00		2.6526E-03
			130.00		2.0818E-03
		END_DATA
	END_SCAN  8
	BEGIN_SCAN  9
		TASK_NAME=MODE_INTERVAL
		PROGRAM=BeamAdjust 1.2
		MEAS_DATE=07-Oct-2010 13:56:49
		LINAC=A4
		MODALITY=X
		INPLANE_AXIS_DIR=TARGET_GUN
		CROSSPLANE_AXIS_DIR=LEFT_RIGHT
		DEPTH_AXIS_DIR=UP_DOWN
		ENERGY=6.00
		SSD=950.00
		WEDGE=None
		FIELD_INPLANE=100.00
		FIELD_CROSSPLANE=100.00
		FIELD_TYPE=RECTANGULAR
		GANTRY=0.00
		GANTRY_UPRIGHT_POSITION=0
		GANTRY_ROTATION=CW
		COLL_ANGLE=90.00
		COLL_OFFSET_INPLANE=0.00
		COLL_OFFSET_CROSSPLANE=0.00
		SCAN_DEVICE=STARCHECK
		ELECTROMETER=2D_ARRAY_INTERFACE
		DETECTOR=STARCHECK
		SCAN_CURVETYPE=INPLANE_PROFILE
		SCAN_DEPTH=0.00
		SCAN_OFFAXIS_CROSSPLANE=-100.00
		SCAN_ANGLE=0.00
		SCAN_DIAGONAL=NOT_DIAGONAL
		MEAS_PRESET=TIME_PRESET
		MEAS_TIME=10.000
		MEAS_UNIT=GY
		PRESSURE=1013.25
		TEMPERATURE=20.00
		NORM_TEMPERATURE=20.00
		CORRECTION_FACTOR=1.0000
		CORRECTIONS=AIR_DENSITY_CORR;
		BEGIN_DATA
			-60.00		8.9547E-03
			-30.00		10.802E-03
			30.00		10.817E-03
			60.00		8.3500E-03
		END_DATA
	END_SCAN  9
	BEGIN_SCAN  10
		TASK_NAME=MODE_INTERVAL
		PROGRAM=BeamAdjust 1.2
		MEAS_DATE=07-Oct-2010 13:56:49
		LINAC=A4
		MODALITY=X
		INPLANE_AXIS_DIR=TARGET_GUN
		CROSSPLANE_AXIS_DIR=LEFT_RIGHT
		DEPTH_AXIS_DIR=UP_DOWN
		ENERGY=6.00
		SSD=950.00
		WEDGE=None
		FIELD_INPLANE=100.00
		FIELD_CROSSPLANE=100.00
		FIELD_TYPE=RECTANGULAR
		GANTRY=0.00
		GANTRY_UPRIGHT_POSITION=0
		GANTRY_ROTATION=CW
		COLL_ANGLE=90.00
		COLL_OFFSET_INPLANE=0.00
		COLL_OFFSET_CROSSPLANE=0.00
		SCAN_DEVICE=STARCHECK
		ELECTROMETER=2D_ARRAY_INTERFACE
		DETECTOR=STARCHECK
		SCAN_CURVETYPE=INPLANE_PROFILE
		SCAN_DEPTH=0.00
		SCAN_OFFAXIS_CROSSPLANE=-50.00
		SCAN_ANGLE=0.00
		SCAN_DIAGONAL=NOT_DIAGONAL
		MEAS_PRESET=TIME_PRESET
		MEAS_TIME=10.000
		MEAS_UNIT=GY
		PRESSURE=1013.25
		TEMPERATURE=20.00
		NORM_TEMPERATURE=20.00
		CORRECTION_FACTOR=1.0000
		CORRECTIONS=AIR_DENSITY_CORR;
		BEGIN_DATA
			-30.00		468.40E-03
			-15.00		465.85E-03
			15.00		456.38E-03
			30.00		446.01E-03
		END_DATA
	END_SCAN  10
	BEGIN_SCAN  11
		TASK_NAME=MODE_INTERVAL
		PROGRAM=BeamAdjust 1.2
		MEAS_DATE=07-Oct-2010 13:56:49
		LINAC=A4
		MODALITY=X
		INPLANE_AXIS_DIR=TARGET_GUN
		CROSSPLANE_AXIS_DIR=LEFT_RIGHT
		DEPTH_AXIS_DIR=UP_DOWN
		ENERGY=6.00
		SSD=950.00
		WEDGE=None
		FIELD_INPLANE=100.00
		FIELD_CROSSPLANE=100.00
		FIELD_TYPE=RECTANGULAR
		GANTRY=0.00
		GANTRY_UPRIGHT_POSITION=0
		GANTRY_ROTATION=CW
		COLL_ANGLE=90.00
		COLL_OFFSET_INPLANE=0.00
		COLL_OFFSET_CROSSPLANE=0.00
		SCAN_DEVICE=STARCHECK
		ELECTROMETER=2D_ARRAY_INTERFACE
		DETECTOR=STARCHECK
		SCAN_CURVETYPE=INPLANE_PROFILE
		SCAN_DEPTH=0.00
		SCAN_OFFAXIS_CROSSPLANE=0.00
		SCAN_ANGLE=0.00
		SCAN_DIAGONAL=NOT_DIAGONAL
		MEAS_PRESET=TIME_PRESET
		MEAS_TIME=10.000
		MEAS_UNIT=GY
		PRESSURE=1013.25
		TEMPERATURE=20.00
		NORM_TEMPERATURE=20.00
		CORRECTION_FACTOR=1.0000
		CORRECTIONS=AIR_DENSITY_CORR;
		BEGIN_DATA
			-126.00		9.6566E-03
			-123.00		9.0842E-03
			-120.00		10.437E-03
			-117.00		11.413E-03
			-114.00		11.975E-03
			-111.00		12.652E-03
			-108.00		13.793E-03
			-105.00		14.695E-03
			-102.00		16.163E-03
			-99.00		16.957E-03
			-96.00		18.257E-03
			-93.00		20.447E-03
			-90.00		21.682E-03
			-87.00		23.554E-03
			-84.00		26.317E-03
			-81.00		28.018E-03
			-78.00		31.007E-03
			-75.00		33.204E-03
			-72.00		36.769E-03
			-69.00		40.759E-03
			-66.00		46.166E-03
			-63.00		52.544E-03
			-60.00		62.565E-03
			-57.00		82.791E-03
			-54.00		133.41E-03
			-51.00		303.92E-03
			-48.00		555.17E-03
			-45.00		622.20E-03
			-42.00		642.21E-03
			-39.00		651.03E-03
			-36.00		656.53E-03
			-33.00		659.98E-03
			-30.00		663.63E-03
			-27.00		664.82E-03
			-24.00		664.72E-03
			-21.00		663.55E-03
			-18.00		670.49E-03
			-15.00		668.78E-03
			-12.00		670.27E-03
			-9.00		670.25E-03
			-6.00		667.30E-03
			0.00		667.48E-03
			6.00		672.81E-03
			9.00		671.89E-03
			12.00		670.94E-03
			15.00		668.42E-03
			18.00		664.83E-03
			21.00		664.45E-03
			24.00		660.61E-03
			27.00		662.83E-03
			30.00		658.36E-03
			33.00		656.76E-03
			36.00		653.64E-03
			39.00		643.13E-03
			42.00		631.16E-03
			45.00		597.04E-03
			48.00		433.80E-03
			51.00		189.01E-03
			54.00		98.515E-03
			57.00		69.659E-03
			60.00		57.171E-03
			63.00		48.749E-03
			66.00		43.380E-03
			69.00		38.897E-03
			72.00		35.188E-03
			75.00		31.852E-03
			78.00		28.135E-03
			81.00		26.601E-03
			84.00		24.446E-03
			87.00		22.558E-03
			90.00		21.206E-03
			93.00		19.837E-03
			96.00		18.277E-03
			99.00		16.663E-03
			102.00		15.503E-03
			105.00		14.287E-03
			108.00		13.784E-03
			111.00		12.202E-03
			114.00		11.806E-03
			117.00		11.022E-03
			120.00		9.8342E-03
			123.00		9.8070E-03
			126.00		8.8148E-03
		END_DATA
	END_SCAN  11
	BEGIN_SCAN  12
		TASK_NAME=MODE_INTERVAL
		PROGRAM=BeamAdjust 1.2
		MEAS_DATE=07-Oct-2010 13:56:49
		LINAC=A4
		MODALITY=X
		INPLANE_AXIS_DIR=TARGET_GUN
		CROSSPLANE_AXIS_DIR=LEFT_RIGHT
		DEPTH_AXIS_DIR=UP_DOWN
		ENERGY=6.00
		SSD=950.00
		WEDGE=None
		FIELD_INPLANE=100.00
		FIELD_CROSSPLANE=100.00
		FIELD_TYPE=RECTANGULAR
		GANTRY=0.00
		GANTRY_UPRIGHT_POSITION=0
		GANTRY_ROTATION=CW
		COLL_ANGLE=90.00
		COLL_OFFSET_INPLANE=0.00
		COLL_OFFSET_CROSSPLANE=0.00
		SCAN_DEVICE=STARCHECK
		ELECTROMETER=2D_ARRAY_INTERFACE
		DETECTOR=STARCHECK
		SCAN_CURVETYPE=INPLANE_PROFILE
		SCAN_DEPTH=0.00
		SCAN_OFFAXIS_CROSSPLANE=50.00
		SCAN_ANGLE=0.00
		SCAN_DIAGONAL=NOT_DIAGONAL
		MEAS_PRESET=TIME_PRESET
		MEAS_TIME=10.000
		MEAS_UNIT=GY
		PRESSURE=1013.25
		TEMPERATURE=20.00
		NORM_TEMPERATURE=20.00
		CORRECTION_FACTOR=1.0000
		CORRECTIONS=AIR_DENSITY_CORR;
		BEGIN_DATA
			-30.00		252.06E-03
			-15.00		260.93E-03
			15.00		269.06E-03
			30.00		269.71E-03
		END_DATA
	END_SCAN  12
	BEGIN_SCAN  13
		TASK_NAME=MODE_INTERVAL
		PROGRAM=BeamAdjust 1.2
		MEAS_DATE=07-Oct-2010 13:56:49
		LINAC=A4
		MODALITY=X
		INPLANE_AXIS_DIR=TARGET_GUN
		CROSSPLANE_AXIS_DIR=LEFT_RIGHT
		DEPTH_AXIS_DIR=UP_DOWN
		ENERGY=6.00
		SSD=950.00
		WEDGE=None
		FIELD_INPLANE=100.00
		FIELD_CROSSPLANE=100.00
		FIELD_TYPE=RECTANGULAR
		GANTRY=0.00
		GANTRY_UPRIGHT_POSITION=0
		GANTRY_ROTATION=CW
		COLL_ANGLE=90.00
		COLL_OFFSET_INPLANE=0.00
		COLL_OFFSET_CROSSPLANE=0.00
		SCAN_DEVICE=STARCHECK
		ELECTROMETER=2D_ARRAY_INTERFACE
		DETECTOR=STARCHECK
		SCAN_CURVETYPE=INPLANE_PROFILE
		SCAN_DEPTH=0.00
		SCAN_OFFAXIS_CROSSPLANE=100.00
		SCAN_ANGLE=0.00
		SCAN_DIAGONAL=NOT_DIAGONAL
		MEAS_PRESET=TIME_PRESET
		MEAS_TIME=10.000
		MEAS_UNIT=GY
		PRESSURE=1013.25
		TEMPERATURE=20.00
		NORM_TEMPERATURE=20.00
		CORRECTION_FACTOR=1.0000
		CORRECTIONS=AIR_DENSITY_CORR;
		BEGIN_DATA
			-60.00		8.1509E-03
			-30.00		10.262E-03
			30.00		9.9638E-03
			60.00		7.1227E-03
		END_DATA
	END_SCAN  13
	BEGIN_SCAN  14
		TASK_NAME=MODE_INTERVAL
		PROGRAM=BeamAdjust 1.2
		MEAS_DATE=07-Oct-2010 13:56:49
		LINAC=A4
		MODALITY=X
		INPLANE_AXIS_DIR=TARGET_GUN
		CROSSPLANE_AXIS_DIR=LEFT_RIGHT
		DEPTH_AXIS_DIR=UP_DOWN
		ENERGY=6.00
		SSD=950.00
		WEDGE=None
		FIELD_INPLANE=100.00
		FIELD_CROSSPLANE=100.00
		FIELD_TYPE=RECTANGULAR
		GANTRY=0.00
		GANTRY_UPRIGHT_POSITION=0
		GANTRY_ROTATION=CW
		COLL_ANGLE=90.00
		COLL_OFFSET_INPLANE=0.00
		COLL_OFFSET_CROSSPLANE=0.00
		SCAN_DEVICE=STARCHECK
		ELECTROMETER=2D_ARRAY_INTERFACE
		DETECTOR=STARCHECK
		SCAN_CURVETYPE=INPLANE_PROFILE
		SCAN_DEPTH=0.00
		SCAN_OFFAXIS_CROSSPLANE=130.00
		SCAN_ANGLE=0.00
		SCAN_DIAGONAL=NOT_DIAGONAL
		MEAS_PRESET=TIME_PRESET
		MEAS_TIME=10.000
		MEAS_UNIT=GY
		PRESSURE=1013.25
		TEMPERATURE=20.00
		NORM_TEMPERATURE=20.00
		CORRECTION_FACTOR=1.0000
		CORRECTIONS=AIR_DENSITY_CORR;
		BEGIN_DATA
			-130.00		1.8806E-03
			-125.00		2.7303E-03
			-120.00		2.2379E-03
			-115.00		3.0501E-03
			-110.00		2.8565E-03
			-105.00		2.8831E-03
			-100.00		3.2646E-03
			-95.00		2.9394E-03
			-90.00		2.8539E-03
			-85.00		3.8151E-03
			-80.00		3.7595E-03
			-75.00		4.4744E-03
			-70.00		4.0723E-03
			-65.00		4.2919E-03
			-60.00		4.8273E-03
			-55.00		4.3635E-03
			-50.00		4.3063E-03
			-45.00		4.7504E-03
			-40.00		5.2304E-03
			-35.00		5.1886E-03
			-30.00		5.1553E-03
			-25.00		5.3692E-03
			-20.00		5.4802E-03
			-15.00		5.2173E-03
			-10.00		4.7521E-03
			-5.00		6.4908E-03
			0.00		6.3888E-03
			5.00		5.6183E-03
			10.00		5.8034E-03
			15.00		5.3473E-03
			20.00		5.5614E-03
			25.00		5.4747E-03
			30.00		4.9910E-03
			35.00		5.1310E-03
			40.00		5.5930E-03
			45.00		5.0298E-03
			50.00		4.7926E-03
			55.00		5.1394E-03
			60.00		4.5958E-03
			65.00		4.5768E-03
			70.00		3.8918E-03
			75.00		3.9065E-03
			80.00		3.9935E-03
			85.00		3.5923E-03
			90.00		3.4150E-03
			95.00		3.0075E-03
			100.00		3.6655E-03
			105.00		2.5595E-03
			110.00		2.6383E-03
			115.00		2.7771E-03
			120.00		2.3997E-03
			125.00		2.6901E-03
			130.00		2.1185E-03
		END_DATA
	END_SCAN  14
	BEGIN_SCAN  15
		TASK_NAME=MODE_INTERVAL
		PROGRAM=BeamAdjust 1.2
		MEAS_DATE=07-Oct-2010 13:56:49
		LINAC=A4
		MODALITY=X
		INPLANE_AXIS_DIR=TARGET_GUN
		CROSSPLANE_AXIS_DIR=LEFT_RIGHT
		DEPTH_AXIS_DIR=UP_DOWN
		ENERGY=6.00
		SSD=950.00
		WEDGE=None
		FIELD_INPLANE=100.00
		FIELD_CROSSPLANE=100.00
		FIELD_TYPE=RECTANGULAR
		GANTRY=0.00
		GANTRY_UPRIGHT_POSITION=0
		GANTRY_ROTATION=CW
		COLL_ANGLE=90.00
		COLL_OFFSET_INPLANE=0.00
		COLL_OFFSET_CROSSPLANE=0.00
		SCAN_DEVICE=STARCHECK
		ELECTROMETER=2D_ARRAY_INTERFACE
		DETECTOR=STARCHECK
		SCAN_CURVETYPE=INPLANE_PROFILE
		SCAN_DEPTH=0.00
		SCAN_OFFAXIS_CROSSPLANE=0.00
		SCAN_ANGLE=0.00
		SCAN_DIAGONAL=FIRST_DIAGONAL
		MEAS_PRESET=TIME_PRESET
		MEAS_TIME=10.000
		MEAS_UNIT=GY
		PRESSURE=1013.25
		TEMPERATURE=20.00
		NORM_TEMPERATURE=20.00
		CORRECTION_FACTOR=1.0000
		CORRECTIONS=AIR_DENSITY_CORR;
		BEGIN_DATA
			-172.40		2.6677E-03
			-169.40		3.3516E-03
			-166.40		4.0372E-03
			-163.40		3.8286E-03
			-160.40		3.8908E-03
			-157.40		4.2241E-03
			-154.40		4.3491E-03
			-151.40		4.3224E-03
			-148.40		4.7380E-03
			-145.40		5.4711E-03
			-142.40		5.9817E-03
			-139.40		6.1824E-03
			-136.40		6.0601E-03
			-133.40		7.1501E-03
			-130.40		7.6656E-03
			-127.40		8.2517E-03
			-124.40		8.2160E-03
			-121.40		9.1241E-03
			-118.40		10.251E-03
			-115.40		10.901E-03
			-112.40		11.556E-03
			-109.40		13.131E-03
			-106.40		14.189E-03
			-103.40		14.917E-03
			-100.40		16.272E-03
			-97.40		18.627E-03
			-94.40		20.454E-03
			-91.40		22.801E-03
			-88.40		25.936E-03
			-85.40		29.395E-03
			-82.40		33.983E-03
			-79.40		41.216E-03
			-76.40		56.601E-03
			-73.40		107.14E-03
			-70.40		268.52E-03
			-67.40		471.55E-03
			-64.40		573.40E-03
			-61.40		609.67E-03
			-58.40		626.84E-03
			-55.40		637.01E-03
			-52.40		643.61E-03
			-49.40		648.41E-03
			-46.40		650.86E-03
			-43.40		653.24E-03
			-40.40		655.76E-03
			-37.40		660.84E-03
			-34.40		660.12E-03
			-31.40		662.26E-03
			-28.40		660.78E-03
			-25.40		663.64E-03
			-22.40		664.25E-03
			-19.40		664.60E-03
			-16.40		668.85E-03
			-13.40		670.56E-03
			0.00		667.48E-03
			13.40		671.72E-03
			16.40		666.99E-03
			19.40		667.34E-03
			22.40		666.43E-03
			25.40		664.89E-03
			28.40		664.19E-03
			31.40		661.13E-03
			34.40		658.33E-03
			37.40		660.60E-03
			40.40		657.85E-03
			43.40		654.84E-03
			46.40		652.72E-03
			49.40		646.69E-03
			52.40		640.81E-03
			55.40		628.03E-03
			58.40		611.24E-03
			61.40		573.98E-03
			64.40		465.50E-03
			67.40		265.25E-03
			70.40		108.54E-03
			73.40		57.781E-03
			76.40		41.472E-03
			79.40		34.034E-03
			82.40		29.261E-03
			85.40		25.305E-03
			88.40		23.118E-03
			91.40		20.136E-03
			94.40		18.795E-03
			97.40		16.797E-03
			100.40		15.544E-03
			103.40		15.094E-03
			106.40		13.067E-03
			109.40		12.028E-03
			112.40		10.051E-03
			115.40		9.9748E-03
			118.40		8.6949E-03
			121.40		8.3072E-03
			124.40		7.9610E-03
			127.40		7.7178E-03
			130.40		7.5174E-03
			133.40		6.2774E-03
			136.40		5.5806E-03
			139.40		4.8492E-03
			142.40		4.8449E-03
			145.40		5.4014E-03
			148.40		5.1697E-03
			151.40		4.1403E-03
			154.40		3.9749E-03
			157.40		4.0449E-03
			160.40		2.9473E-03
			163.40		3.1038E-03
			166.40		2.9554E-03
			169.40		3.2326E-03
			172.40		3.1489E-03
		END_DATA
	END_SCAN  15
	BEGIN_SCAN  16
		TASK_NAME=MODE_INTERVAL
		PROGRAM=BeamAdjust 1.2
		MEAS_DATE=07-Oct-2010 13:56:49
		LINAC=A4
		MODALITY=X
		INPLANE_AXIS_DIR=GUN_TARGET
		CROSSPLANE_AXIS_DIR=LEFT_RIGHT
		DEPTH_AXIS_DIR=UP_DOWN
		ENERGY=6.00
		SSD=950.00
		WEDGE=None
		FIELD_INPLANE=100.00
		FIELD_CROSSPLANE=100.00
		FIELD_TYPE=RECTANGULAR
		GANTRY=0.00
		GANTRY_UPRIGHT_POSITION=0
		GANTRY_ROTATION=CW
		COLL_ANGLE=90.00
		COLL_OFFSET_INPLANE=0.00
		COLL_OFFSET_CROSSPLANE=0.00
		SCAN_DEVICE=STARCHECK
		ELECTROMETER=2D_ARRAY_INTERFACE
		DETECTOR=STARCHECK
		SCAN_CURVETYPE=INPLANE_PROFILE
		SCAN_DEPTH=0.00
		SCAN_OFFAXIS_CROSSPLANE=0.00
		SCAN_ANGLE=0.00
		SCAN_DIAGONAL=SECOND_DIAGONAL
		MEAS_PRESET=TIME_PRESET
		MEAS_TIME=10.000
		MEAS_UNIT=GY
		PRESSURE=1013.25
		TEMPERATURE=20.00
		NORM_TEMPERATURE=20.00
		CORRECTION_FACTOR=1.0000
		CORRECTIONS=AIR_DENSITY_CORR;
		BEGIN_DATA
			-172.40		3.0034E-03
			-169.40		3.1291E-03
			-166.40		3.1752E-03
			-163.40		3.1382E-03
			-160.40		3.4454E-03
			-157.40		3.8603E-03
			-154.40		4.0597E-03
			-151.40		4.3405E-03
			-148.40		4.7880E-03
			-145.40		4.9131E-03
			-142.40		5.6035E-03
			-139.40		5.4727E-03
			-136.40		6.2609E-03
			-133.40		6.5980E-03
			-130.40		6.6609E-03
			-127.40		7.5992E-03
			-124.40		8.1251E-03
			-121.40		8.6937E-03
			-118.40		9.3571E-03
			-115.40		10.031E-03
			-112.40		10.763E-03
			-109.40		12.067E-03
			-106.40		13.322E-03
			-103.40		14.326E-03
			-100.40		15.980E-03
			-97.40		17.052E-03
			-94.40		19.117E-03
			-91.40		21.055E-03
			-88.40		23.020E-03
			-85.40		25.681E-03
			-82.40		29.863E-03
			-79.40		35.297E-03
			-76.40		44.183E-03
			-73.40		65.450E-03
			-70.40		141.00E-03
			-67.40		335.10E-03
			-64.40		514.54E-03
			-61.40		592.26E-03
			-58.40		622.61E-03
			-55.40		635.31E-03
			-52.40		647.54E-03
			-49.40		651.78E-03
			-46.40		655.78E-03
			-43.40		658.41E-03
			-40.40		660.83E-03
			-37.40		664.34E-03
			-34.40		664.00E-03
			-31.40		665.19E-03
			-28.40		667.23E-03
			-25.40		666.42E-03
			-22.40		664.24E-03
			-19.40		667.79E-03
			-16.40		669.29E-03
			-13.40		672.15E-03
			0.00		667.48E-03
			13.40		672.21E-03
			16.40		668.84E-03
			19.40		665.50E-03
			22.40		662.78E-03
			25.40		662.81E-03
			28.40		661.79E-03
			31.40		660.05E-03
			34.40		657.43E-03
			37.40		656.90E-03
			40.40		655.31E-03
			43.40		653.10E-03
			46.40		651.49E-03
			49.40		647.34E-03
			52.40		639.43E-03
			55.40		630.64E-03
			58.40		620.06E-03
			61.40		592.37E-03
			64.40		521.92E-03
			67.40		367.38E-03
			70.40		172.70E-03
			73.40		75.858E-03
			76.40		47.751E-03
			79.40		37.204E-03
			82.40		32.011E-03
			85.40		27.938E-03
			88.40		24.767E-03
			91.40		22.347E-03
			94.40		20.539E-03
			97.40		18.200E-03
			100.40		15.961E-03
			103.40		14.539E-03
			106.40		13.816E-03
			109.40		12.212E-03
			112.40		11.426E-03
			115.40		10.559E-03
			118.40		9.4287E-03
			121.40		8.6929E-03
			124.40		7.8686E-03
			127.40		7.7424E-03
			130.40		7.2054E-03
			133.40		6.6178E-03
			136.40		6.6392E-03
			139.40		6.2184E-03
			142.40		5.8222E-03
			145.40		5.1522E-03
			148.40		5.3072E-03
			151.40		4.2365E-03
			154.40		4.4328E-03
			157.40		3.9960E-03
			160.40		3.9559E-03
			163.40		4.1377E-03
			166.40		3.4506E-03
			169.40		3.0859E-03
			172.40		2.4823E-03
		END_DATA
	END_SCAN  16
END_SCAN_DATA
