BEGIN_SCAN_DATA
	FORMAT=CC-Export V1.9                  
	FILE_CREATION_DATE=07-Oct-2010 13:57:20
	LAST_MODIFIED=07-Oct-2010 13:57:20
	BEGIN_SCAN  1
		TASK_NAME=MODE_INTERVAL
		PROGRAM=BeamAdjust 1.2
		MEAS_DATE=07-Oct-2010 13:57:20
		LINAC=A4
		MODALITY=X
		INPLANE_AXIS_DIR=TARGET_GUN
		CROSSPLANE_AXIS_DIR=LEFT_RIGHT
		DEPTH_AXIS_DIR=UP_DOWN
		ENERGY=6.00
		SSD=950.00
		WEDGE=None
		FIELD_INPLANE=100.00
		FIELD_CROSSPLANE=100.00
		FIELD_TYPE=RECTANGULAR
		GANTRY=0.00
		GANTRY_UPRIGHT_POSITION=0
		GANTRY_ROTATION=CW
		COLL_ANGLE=90.00
		COLL_OFFSET_INPLANE=0.00
		COLL_OFFSET_CROSSPLANE=0.00
		SCAN_DEVICE=STARCHECK
		ELECTROMETER=2D_ARRAY_INTERFACE
		DETECTOR=STARCHECK
		SCAN_CURVETYPE=CROSSPLANE_PROFILE
		SCAN_DEPTH=0.00
		SCAN_OFFAXIS_INPLANE=-130.00
		SCAN_ANGLE=0.00
		SCAN_DIAGONAL=NOT_DIAGONAL
		MEAS_PRESET=TIME_PRESET
		MEAS_TIME=10.000
		MEAS_UNIT=GY
		PRESSURE=1013.25
		TEMPERATURE=20.00
		NORM_TEMPERATURE=20.00
		CORRECTION_FACTOR=1.0000
		CORRECTIONS=AIR_DENSITY_CORR;
		BEGIN_DATA
			-130.00		2.7674E-03
			-80.00		4.7529E-03
			-40.00		7.0780E-03
			40.00		6.9020E-03
			80.00		3.9189E-03
			130.00		2.1574E-03
		END_DATA
	END_SCAN  1
	BEGIN_SCAN  2
		TASK_NAME=MODE_INTERVAL
		PROGRAM=BeamAdjust 1.2
		MEAS_DATE=07-Oct-2010 13:57:20
		LINAC=A4
		MODALITY=X
		INPLANE_AXIS_DIR=TARGET_GUN
		CROSSPLANE_AXIS_DIR=LEFT_RIGHT
		DEPTH_AXIS_DIR=UP_DOWN
		ENERGY=6.00
		SSD=950.00
		WEDGE=None
		FIELD_INPLANE=100.00
		FIELD_CROSSPLANE=100.00
		FIELD_TYPE=RECTANGULAR
		GANTRY=0.00
		GANTRY_UPRIGHT_POSITION=0
		GANTRY_ROTATION=CW
		COLL_ANGLE=90.00
		COLL_OFFSET_INPLANE=0.00
		COLL_OFFSET_CROSSPLANE=0.00
		SCAN_DEVICE=STARCHECK
		ELECTROMETER=2D_ARRAY_INTERFACE
		DETECTOR=STARCHECK
		SCAN_CURVETYPE=CROSSPLANE_PROFILE
		SCAN_DEPTH=0.00
		SCAN_OFFAXIS_INPLANE=-100.00
		SCAN_ANGLE=0.00
		SCAN_DIAGONAL=NOT_DIAGONAL
		MEAS_PRESET=TIME_PRESET
		MEAS_TIME=10.000
		MEAS_UNIT=GY
		PRESSURE=1013.25
		TEMPERATURE=20.00
		NORM_TEMPERATURE=20.00
		CORRECTION_FACTOR=1.0000
		CORRECTIONS=AIR_DENSITY_CORR;
		BEGIN_DATA
			-60.00		10.697E-03
			-30.00		14.465E-03
			30.00		14.523E-03
			60.00		10.086E-03
		END_DATA
	END_SCAN  2
	BEGIN_SCAN  3
		TASK_NAME=MODE_INTERVAL
		PROGRAM=BeamAdjust 1.2
		MEAS_DATE=07-Oct-2010 13:57:20
		LINAC=A4
		MODALITY=X
		INPLANE_AXIS_DIR=TARGET_GUN
		CROSSPLANE_AXIS_DIR=LEFT_RIGHT
		DEPTH_AXIS_DIR=UP_DOWN
		ENERGY=6.00
		SSD=950.00
		WEDGE=None
		FIELD_INPLANE=100.00
		FIELD_CROSSPLANE=100.00
		FIELD_TYPE=RECTANGULAR
		GANTRY=0.00
		GANTRY_UPRIGHT_POSITION=0
		GANTRY_ROTATION=CW
		COLL_ANGLE=90.00
		COLL_OFFSET_INPLANE=0.00
		COLL_OFFSET_CROSSPLANE=0.00
		SCAN_DEVICE=STARCHECK
		ELECTROMETER=2D_ARRAY_INTERFACE
		DETECTOR=STARCHECK
		SCAN_CURVETYPE=CROSSPLANE_PROFILE
		SCAN_DEPTH=0.00
		SCAN_OFFAXIS_INPLANE=-50.00
		SCAN_ANGLE=0.00
		SCAN_DIAGONAL=NOT_DIAGONAL
		MEAS_PRESET=TIME_PRESET
		MEAS_TIME=10.000
		MEAS_UNIT=GY
		PRESSURE=1013.25
		TEMPERATURE=20.00
		NORM_TEMPERATURE=20.00
		CORRECTION_FACTOR=1.0000
		CORRECTIONS=AIR_DENSITY_CORR;
		BEGIN_DATA
			-30.00		392.03E-03
			-15.00		357.15E-03
			15.00		382.95E-03
			30.00		386.24E-03
		END_DATA
	END_SCAN  3
	BEGIN_SCAN  4
		TASK_NAME=MODE_INTERVAL
		PROGRAM=BeamAdjust 1.2
		MEAS_DATE=07-Oct-2010 13:57:20
		LINAC=A4
		MODALITY=X
		INPLANE_AXIS_DIR=TARGET_GUN
		CROSSPLANE_AXIS_DIR=LEFT_RIGHT
		DEPTH_AXIS_DIR=UP_DOWN
		ENERGY=6.00
		SSD=950.00
		WEDGE=None
		FIELD_INPLANE=100.00
		FIELD_CROSSPLANE=100.00
		FIELD_TYPE=RECTANGULAR
		GANTRY=0.00
		GANTRY_UPRIGHT_POSITION=0
		GANTRY_ROTATION=CW
		COLL_ANGLE=90.00
		COLL_OFFSET_INPLANE=0.00
		COLL_OFFSET_CROSSPLANE=0.00
		SCAN_DEVICE=STARCHECK
		ELECTROMETER=2D_ARRAY_INTERFACE
		DETECTOR=STARCHECK
		SCAN_CURVETYPE=CROSSPLANE_PROFILE
		SCAN_DEPTH=0.00
		SCAN_OFFAXIS_INPLANE=0.00
		SCAN_ANGLE=0.00
		SCAN_DIAGONAL=NOT_DIAGONAL
		MEAS_PRESET=TIME_PRESET
		MEAS_TIME=10.000
		MEAS_UNIT=GY
		PRESSURE=1013.25
		TEMPERATURE=20.00
		NORM_TEMPERATURE=20.00
		CORRECTION_FACTOR=1.0000
		CORRECTIONS=AIR_DENSITY_CORR;
		BEGIN_DATA
			-126.00		7.1035E-03
			-123.00		8.0536E-03
			-120.00		8.1275E-03
			-117.00		8.9366E-03
			-114.00		9.3518E-03
			-111.00		10.197E-03
			-108.00		10.750E-03
			-105.00		11.323E-03
			-102.00		12.559E-03
			-99.00		13.562E-03
			-96.00		14.649E-03
			-93.00		16.245E-03
			-90.00		17.149E-03
			-87.00		19.055E-03
			-84.00		21.371E-03
			-81.00		23.165E-03
			-78.00		25.347E-03
			-75.00		28.403E-03
			-72.00		31.705E-03
			-69.00		36.343E-03
			-66.00		41.765E-03
			-63.00		48.706E-03
			-60.00		60.626E-03
			-57.00		83.819E-03
			-54.00		150.11E-03
			-51.00		410.79E-03
			-48.00		589.43E-03
			-45.00		625.02E-03
			-42.00		638.72E-03
			-39.00		649.72E-03
			-36.00		654.16E-03
			-33.00		653.99E-03
			-30.00		656.05E-03
			-27.00		658.17E-03
			-24.00		660.69E-03
			-21.00		660.25E-03
			-18.00		666.45E-03
			-15.00		666.88E-03
			-12.00		665.08E-03
			-9.00		667.53E-03
			-6.00		666.36E-03
			0.00		665.69E-03
			6.00		669.48E-03
			9.00		668.48E-03
			12.00		666.35E-03
			15.00		664.23E-03
			18.00		664.28E-03
			21.00		662.06E-03
			24.00		658.97E-03
			27.00		662.65E-03
			30.00		660.46E-03
			33.00		657.95E-03
			36.00		653.69E-03
			39.00		646.03E-03
			42.00		630.96E-03
			45.00		592.58E-03
			48.00		420.55E-03
			51.00		151.92E-03
			54.00		84.397E-03
			57.00		61.382E-03
			60.00		48.977E-03
			63.00		41.971E-03
			66.00		36.161E-03
			69.00		31.435E-03
			72.00		28.365E-03
			75.00		25.614E-03
			78.00		22.776E-03
			81.00		20.937E-03
			84.00		18.802E-03
			87.00		17.178E-03
			90.00		16.471E-03
			93.00		14.549E-03
			96.00		13.679E-03
			99.00		12.261E-03
			102.00		11.918E-03
			105.00		10.949E-03
			108.00		10.248E-03
			111.00		9.0494E-03
			114.00		8.7159E-03
			117.00		8.0420E-03
			120.00		7.2706E-03
			123.00		6.7084E-03
			126.00		7.0916E-03
		END_DATA
	END_SCAN  4
	BEGIN_SCAN  5
		TASK_NAME=MODE_INTERVAL
		PROGRAM=BeamAdjust 1.2
		MEAS_DATE=07-Oct-2010 13:57:20
		LINAC=A4
		MODALITY=X
		INPLANE_AXIS_DIR=TARGET_GUN
		CROSSPLANE_AXIS_DIR=LEFT_RIGHT
		DEPTH_AXIS_DIR=UP_DOWN
		ENERGY=6.00
		SSD=950.00
		WEDGE=None
		FIELD_INPLANE=100.00
		FIELD_CROSSPLANE=100.00
		FIELD_TYPE=RECTANGULAR
		GANTRY=0.00
		GANTRY_UPRIGHT_POSITION=0
		GANTRY_ROTATION=CW
		COLL_ANGLE=90.00
		COLL_OFFSET_INPLANE=0.00
		COLL_OFFSET_CROSSPLANE=0.00
		SCAN_DEVICE=STARCHECK
		ELECTROMETER=2D_ARRAY_INTERFACE
		DETECTOR=STARCHECK
		SCAN_CURVETYPE=CROSSPLANE_PROFILE
		SCAN_DEPTH=0.00
		SCAN_OFFAXIS_INPLANE=50.00
		SCAN_ANGLE=0.00
		SCAN_DIAGONAL=NOT_DIAGONAL
		MEAS_PRESET=TIME_PRESET
		MEAS_TIME=10.000
		MEAS_UNIT=GY
		PRESSURE=1013.25
		TEMPERATURE=20.00
		NORM_TEMPERATURE=20.00
		CORRECTION_FACTOR=1.0000
		CORRECTIONS=AIR_DENSITY_CORR;
		BEGIN_DATA
			-30.00		269.49E-03
			-15.00		284.66E-03
			15.00		255.61E-03
			30.00		256.51E-03
		END_DATA
	END_SCAN  5
	BEGIN_SCAN  6
		TASK_NAME=MODE_INTERVAL
		PROGRAM=BeamAdjust 1.2
		MEAS_DATE=07-Oct-2010 13:57:20
		LINAC=A4
		MODALITY=X
		INPLANE_AXIS_DIR=TARGET_GUN
		CROSSPLANE_AXIS_DIR=LEFT_RIGHT
		DEPTH_AXIS_DIR=UP_DOWN
		ENERGY=6.00
		SSD=950.00
		WEDGE=None
		FIELD_INPLANE=100.00
		FIELD_CROSSPLANE=100.00
		FIELD_TYPE=RECTANGULAR
		GANTRY=0.00
		GANTRY_UPRIGHT_POSITION=0
		GANTRY_ROTATION=CW
		COLL_ANGLE=90.00
		COLL_OFFSET_INPLANE=0.00
		COLL_OFFSET_CROSSPLANE=0.00
		SCAN_DEVICE=STARCHECK
		ELECTROMETER=2D_ARRAY_INTERFACE
		DETECTOR=STARCHECK
		SCAN_CURVETYPE=CROSSPLANE_PROFILE
		SCAN_DEPTH=0.00
		SCAN_OFFAXIS_INPLANE=100.00
		SCAN_ANGLE=0.00
		SCAN_DIAGONAL=NOT_DIAGONAL
		MEAS_PRESET=TIME_PRESET
		MEAS_TIME=10.000
		MEAS_UNIT=GY
		PRESSURE=1013.25
		TEMPERATURE=20.00
		NORM_TEMPERATURE=20.00
		CORRECTION_FACTOR=1.0000
		CORRECTIONS=AIR_DENSITY_CORR;
		BEGIN_DATA
			-60.00		10.600E-03
			-30.00		15.110E-03
			30.00		15.108E-03
			60.00		8.6068E-03
		END_DATA
	END_SCAN  6
	BEGIN_SCAN  7
		TASK_NAME=MODE_INTERVAL
		PROGRAM=BeamAdjust 1.2
		MEAS_DATE=07-Oct-2010 13:57:20
		LINAC=A4
		MODALITY=X
		INPLANE_AXIS_DIR=TARGET_GUN
		CROSSPLANE_AXIS_DIR=LEFT_RIGHT
		DEPTH_AXIS_DIR=UP_DOWN
		ENERGY=6.00
		SSD=950.00
		WEDGE=None
		FIELD_INPLANE=100.00
		FIELD_CROSSPLANE=100.00
		FIELD_TYPE=RECTANGULAR
		GANTRY=0.00
		GANTRY_UPRIGHT_POSITION=0
		GANTRY_ROTATION=CW
		COLL_ANGLE=90.00
		COLL_OFFSET_INPLANE=0.00
		COLL_OFFSET_CROSSPLANE=0.00
		SCAN_DEVICE=STARCHECK
		ELECTROMETER=2D_ARRAY_INTERFACE
		DETECTOR=STARCHECK
		SCAN_CURVETYPE=CROSSPLANE_PROFILE
		SCAN_DEPTH=0.00
		SCAN_OFFAXIS_INPLANE=130.00
		SCAN_ANGLE=0.00
		SCAN_DIAGONAL=NOT_DIAGONAL
		MEAS_PRESET=TIME_PRESET
		MEAS_TIME=10.000
		MEAS_UNIT=GY
		PRESSURE=1013.25
		TEMPERATURE=20.00
		NORM_TEMPERATURE=20.00
		CORRECTION_FACTOR=1.0000
		CORRECTIONS=AIR_DENSITY_CORR;
		BEGIN_DATA
			-130.00		2.6997E-03
			-80.00		4.6252E-03
			-40.00		7.6638E-03
			40.00		7.5586E-03
			80.00		4.3913E-03
			130.00		2.3654E-03
		END_DATA
	END_SCAN  7
	BEGIN_SCAN  8
		TASK_NAME=MODE_INTERVAL
		PROGRAM=BeamAdjust 1.2
		MEAS_DATE=07-Oct-2010 13:57:20
		LINAC=A4
		MODALITY=X
		INPLANE_AXIS_DIR=TARGET_GUN
		CROSSPLANE_AXIS_DIR=LEFT_RIGHT
		DEPTH_AXIS_DIR=UP_DOWN
		ENERGY=6.00
		SSD=950.00
		WEDGE=None
		FIELD_INPLANE=100.00
		FIELD_CROSSPLANE=100.00
		FIELD_TYPE=RECTANGULAR
		GANTRY=0.00
		GANTRY_UPRIGHT_POSITION=0
		GANTRY_ROTATION=CW
		COLL_ANGLE=90.00
		COLL_OFFSET_INPLANE=0.00
		COLL_OFFSET_CROSSPLANE=0.00
		SCAN_DEVICE=STARCHECK
		ELECTROMETER=2D_ARRAY_INTERFACE
		DETECTOR=STARCHECK
		SCAN_CURVETYPE=INPLANE_PROFILE
		SCAN_DEPTH=0.00
		SCAN_OFFAXIS_CROSSPLANE=-130.00
		SCAN_ANGLE=0.00
		SCAN_DIAGONAL=NOT_DIAGONAL
		MEAS_PRESET=TIME_PRESET
		MEAS_TIME=10.000
		MEAS_UNIT=GY
		PRESSURE=1013.25
		TEMPERATURE=20.00
		NORM_TEMPERATURE=20.00
		CORRECTION_FACTOR=1.0000
		CORRECTIONS=AIR_DENSITY_CORR;
		BEGIN_DATA
			-130.00		2.7674E-03
			-125.00		2.9119E-03
			-120.00		3.0074E-03
			-115.00		3.7221E-03
			-110.00		3.3930E-03
			-105.00		3.7438E-03
			-100.00		4.4495E-03
			-95.00		4.2475E-03
			-90.00		4.8050E-03
			-85.00		4.5066E-03
			-80.00		4.6139E-03
			-75.00		5.4950E-03
			-70.00		5.0261E-03
			-65.00		5.1278E-03
			-60.00		5.7477E-03
			-55.00		5.9200E-03
			-50.00		4.7695E-03
			-45.00		4.9298E-03
			-40.00		5.0186E-03
			-35.00		5.7546E-03
			-30.00		5.6319E-03
			-25.00		5.4056E-03
			-20.00		5.5476E-03
			-15.00		5.1565E-03
			-10.00		5.9604E-03
			-5.00		6.6210E-03
			0.00		6.2909E-03
			5.00		6.8014E-03
			10.00		5.8567E-03
			15.00		5.9648E-03
			20.00		6.1892E-03
			25.00		5.5138E-03
			30.00		5.7125E-03
			35.00		5.8727E-03
			40.00		5.1116E-03
			45.00		5.0841E-03
			50.00		5.2749E-03
			55.00		4.8213E-03
			60.00		5.3049E-03
			65.00		4.5878E-03
			70.00		4.0414E-03
			75.00		4.2185E-03
			80.00		3.9415E-03
			85.00		3.9113E-03
			90.00		3.7625E-03
			95.00		3.3221E-03
			100.00		3.2954E-03
			105.00		2.8508E-03
			110.00		2.9288E-03
			115.00		2.5817E-03
			120.00		2.8843E-03
			125.00		2.4505E-03
			130.00		2.6997E-03
		END_DATA
	END_SCAN  8
	BEGIN_SCAN  9
		TASK_NAME=MODE_INTERVAL
		PROGRAM=BeamAdjust 1.2
		MEAS_DATE=07-Oct-2010 13:57:20
		LINAC=A4
		MODALITY=X
		INPLANE_AXIS_DIR=TARGET_GUN
		CROSSPLANE_AXIS_DIR=LEFT_RIGHT
		DEPTH_AXIS_DIR=UP_DOWN
		ENERGY=6.00
		SSD=950.00
		WEDGE=None
		FIELD_INPLANE=100.00
		FIELD_CROSSPLANE=100.00
		FIELD_TYPE=RECTANGULAR
		GANTRY=0.00
		GANTRY_UPRIGHT_POSITION=0
		GANTRY_ROTATION=CW
		COLL_ANGLE=90.00
		COLL_OFFSET_INPLANE=0.00
		COLL_OFFSET_CROSSPLANE=0.00
		SCAN_DEVICE=STARCHECK
		ELECTROMETER=2D_ARRAY_INTERFACE
		DETECTOR=STARCHECK
		SCAN_CURVETYPE=INPLANE_PROFILE
		SCAN_DEPTH=0.00
		SCAN_OFFAXIS_CROSSPLANE=-100.00
		SCAN_ANGLE=0.00
		SCAN_DIAGONAL=NOT_DIAGONAL
		MEAS_PRESET=TIME_PRESET
		MEAS_TIME=10.000
		MEAS_UNIT=GY
		PRESSURE=1013.25
		TEMPERATURE=20.00
		NORM_TEMPERATURE=20.00
		CORRECTION_FACTOR=1.0000
		CORRECTIONS=AIR_DENSITY_CORR;
		BEGIN_DATA
			-60.00		8.6230E-03
			-30.00		11.096E-03
			30.00		10.732E-03
			60.00		8.3708E-03
		END_DATA
	END_SCAN  9
	BEGIN_SCAN  10
		TASK_NAME=MODE_INTERVAL
		PROGRAM=BeamAdjust 1.2
		MEAS_DATE=07-Oct-2010 13:57:20
		LINAC=A4
		MODALITY=X
		INPLANE_AXIS_DIR=TARGET_GUN
		CROSSPLANE_AXIS_DIR=LEFT_RIGHT
		DEPTH_AXIS_DIR=UP_DOWN
		ENERGY=6.00
		SSD=950.00
		WEDGE=None
		FIELD_INPLANE=100.00
		FIELD_CROSSPLANE=100.00
		FIELD_TYPE=RECTANGULAR
		GANTRY=0.00
		GANTRY_UPRIGHT_POSITION=0
		GANTRY_ROTATION=CW
		COLL_ANGLE=90.00
		COLL_OFFSET_INPLANE=0.00
		COLL_OFFSET_CROSSPLANE=0.00
		SCAN_DEVICE=STARCHECK
		ELECTROMETER=2D_ARRAY_INTERFACE
		DETECTOR=STARCHECK
		SCAN_CURVETYPE=INPLANE_PROFILE
		SCAN_DEPTH=0.00
		SCAN_OFFAXIS_CROSSPLANE=-50.00
		SCAN_ANGLE=0.00
		SCAN_DIAGONAL=NOT_DIAGONAL
		MEAS_PRESET=TIME_PRESET
		MEAS_TIME=10.000
		MEAS_UNIT=GY
		PRESSURE=1013.25
		TEMPERATURE=20.00
		NORM_TEMPERATURE=20.00
		CORRECTION_FACTOR=1.0000
		CORRECTIONS=AIR_DENSITY_CORR;
		BEGIN_DATA
			-30.00		491.19E-03
			-15.00		487.61E-03
			15.00		478.89E-03
			30.00		469.13E-03
		END_DATA
	END_SCAN  10
	BEGIN_SCAN  11
		TASK_NAME=MODE_INTERVAL
		PROGRAM=BeamAdjust 1.2
		MEAS_DATE=07-Oct-2010 13:57:20
		LINAC=A4
		MODALITY=X
		INPLANE_AXIS_DIR=TARGET_GUN
		CROSSPLANE_AXIS_DIR=LEFT_RIGHT
		DEPTH_AXIS_DIR=UP_DOWN
		ENERGY=6.00
		SSD=950.00
		WEDGE=None
		FIELD_INPLANE=100.00
		FIELD_CROSSPLANE=100.00
		FIELD_TYPE=RECTANGULAR
		GANTRY=0.00
		GANTRY_UPRIGHT_POSITION=0
		GANTRY_ROTATION=CW
		COLL_ANGLE=90.00
		COLL_OFFSET_INPLANE=0.00
		COLL_OFFSET_CROSSPLANE=0.00
		SCAN_DEVICE=STARCHECK
		ELECTROMETER=2D_ARRAY_INTERFACE
		DETECTOR=STARCHECK
		SCAN_CURVETYPE=INPLANE_PROFILE
		SCAN_DEPTH=0.00
		SCAN_OFFAXIS_CROSSPLANE=0.00
		SCAN_ANGLE=0.00
		SCAN_DIAGONAL=NOT_DIAGONAL
		MEAS_PRESET=TIME_PRESET
		MEAS_TIME=10.000
		MEAS_UNIT=GY
		PRESSURE=1013.25
		TEMPERATURE=20.00
		NORM_TEMPERATURE=20.00
		CORRECTION_FACTOR=1.0000
		CORRECTIONS=AIR_DENSITY_CORR;
		BEGIN_DATA
			-126.00		9.0802E-03
			-123.00		8.9345E-03
			-120.00		10.697E-03
			-117.00		11.681E-03
			-114.00		11.823E-03
			-111.00		12.796E-03
			-108.00		13.647E-03
			-105.00		14.961E-03
			-102.00		16.357E-03
			-99.00		16.736E-03
			-96.00		18.184E-03
			-93.00		20.609E-03
			-90.00		21.617E-03
			-87.00		23.813E-03
			-84.00		25.428E-03
			-81.00		27.965E-03
			-78.00		31.421E-03
			-75.00		33.097E-03
			-72.00		36.806E-03
			-69.00		40.520E-03
			-66.00		45.722E-03
			-63.00		52.627E-03
			-60.00		62.659E-03
			-57.00		82.357E-03
			-54.00		133.16E-03
			-51.00		302.79E-03
			-48.00		554.61E-03
			-45.00		621.56E-03
			-42.00		641.38E-03
			-39.00		650.72E-03
			-36.00		656.51E-03
			-33.00		659.42E-03
			-30.00		663.06E-03
			-27.00		664.09E-03
			-24.00		663.69E-03
			-21.00		662.54E-03
			-18.00		669.01E-03
			-15.00		667.95E-03
			-12.00		668.91E-03
			-9.00		668.89E-03
			-6.00		666.44E-03
			0.00		665.69E-03
			6.00		670.20E-03
			9.00		669.63E-03
			12.00		668.85E-03
			15.00		666.84E-03
			18.00		662.27E-03
			21.00		662.07E-03
			24.00		658.41E-03
			27.00		660.35E-03
			30.00		655.78E-03
			33.00		653.98E-03
			36.00		651.42E-03
			39.00		640.21E-03
			42.00		628.61E-03
			45.00		595.04E-03
			48.00		433.12E-03
			51.00		187.99E-03
			54.00		98.497E-03
			57.00		69.641E-03
			60.00		57.047E-03
			63.00		48.556E-03
			66.00		43.543E-03
			69.00		38.464E-03
			72.00		35.080E-03
			75.00		31.702E-03
			78.00		28.552E-03
			81.00		25.979E-03
			84.00		24.485E-03
			87.00		22.475E-03
			90.00		21.161E-03
			93.00		19.479E-03
			96.00		18.017E-03
			99.00		17.035E-03
			102.00		15.109E-03
			105.00		14.046E-03
			108.00		13.581E-03
			111.00		12.305E-03
			114.00		11.754E-03
			117.00		11.072E-03
			120.00		9.9778E-03
			123.00		9.5665E-03
			126.00		8.5673E-03
		END_DATA
	END_SCAN  11
	BEGIN_SCAN  12
		TASK_NAME=MODE_INTERVAL
		PROGRAM=BeamAdjust 1.2
		MEAS_DATE=07-Oct-2010 13:57:20
		LINAC=A4
		MODALITY=X
		INPLANE_AXIS_DIR=TARGET_GUN
		CROSSPLANE_AXIS_DIR=LEFT_RIGHT
		DEPTH_AXIS_DIR=UP_DOWN
		ENERGY=6.00
		SSD=950.00
		WEDGE=None
		FIELD_INPLANE=100.00
		FIELD_CROSSPLANE=100.00
		FIELD_TYPE=RECTANGULAR
		GANTRY=0.00
		GANTRY_UPRIGHT_POSITION=0
		GANTRY_ROTATION=CW
		COLL_ANGLE=90.00
		COLL_OFFSET_INPLANE=0.00
		COLL_OFFSET_CROSSPLANE=0.00
		SCAN_DEVICE=STARCHECK
		ELECTROMETER=2D_ARRAY_INTERFACE
		DETECTOR=STARCHECK
		SCAN_CURVETYPE=INPLANE_PROFILE
		SCAN_DEPTH=0.00
		SCAN_OFFAXIS_CROSSPLANE=50.00
		SCAN_ANGLE=0.00
		SCAN_DIAGONAL=NOT_DIAGONAL
		MEAS_PRESET=TIME_PRESET
		MEAS_TIME=10.000
		MEAS_UNIT=GY
		PRESSURE=1013.25
		TEMPERATURE=20.00
		NORM_TEMPERATURE=20.00
		CORRECTION_FACTOR=1.0000
		CORRECTIONS=AIR_DENSITY_CORR;
		BEGIN_DATA
			-30.00		226.93E-03
			-15.00		235.75E-03
			15.00		243.22E-03
			30.00		243.82E-03
		END_DATA
	END_SCAN  12
	BEGIN_SCAN  13
		TASK_NAME=MODE_INTERVAL
		PROGRAM=BeamAdjust 1.2
		MEAS_DATE=07-Oct-2010 13:57:20
		LINAC=A4
		MODALITY=X
		INPLANE_AXIS_DIR=TARGET_GUN
		CROSSPLANE_AXIS_DIR=LEFT_RIGHT
		DEPTH_AXIS_DIR=UP_DOWN
		ENERGY=6.00
		SSD=950.00
		WEDGE=None
		FIELD_INPLANE=100.00
		FIELD_CROSSPLANE=100.00
		FIELD_TYPE=RECTANGULAR
		GANTRY=0.00
		GANTRY_UPRIGHT_POSITION=0
		GANTRY_ROTATION=CW
		COLL_ANGLE=90.00
		COLL_OFFSET_INPLANE=0.00
		COLL_OFFSET_CROSSPLANE=0.00
		SCAN_DEVICE=STARCHECK
		ELECTROMETER=2D_ARRAY_INTERFACE
		DETECTOR=STARCHECK
		SCAN_CURVETYPE=INPLANE_PROFILE
		SCAN_DEPTH=0.00
		SCAN_OFFAXIS_CROSSPLANE=100.00
		SCAN_ANGLE=0.00
		SCAN_DIAGONAL=NOT_DIAGONAL
		MEAS_PRESET=TIME_PRESET
		MEAS_TIME=10.000
		MEAS_UNIT=GY
		PRESSURE=1013.25
		TEMPERATURE=20.00
		NORM_TEMPERATURE=20.00
		CORRECTION_FACTOR=1.0000
		CORRECTIONS=AIR_DENSITY_CORR;
		BEGIN_DATA
			-60.00		7.7881E-03
			-30.00		10.015E-03
			30.00		10.584E-03
			60.00		7.5269E-03
		END_DATA
	END_SCAN  13
	BEGIN_SCAN  14
		TASK_NAME=MODE_INTERVAL
		PROGRAM=BeamAdjust 1.2
		MEAS_DATE=07-Oct-2010 13:57:20
		LINAC=A4
		MODALITY=X
		INPLANE_AXIS_DIR=TARGET_GUN
		CROSSPLANE_AXIS_DIR=LEFT_RIGHT
		DEPTH_AXIS_DIR=UP_DOWN
		ENERGY=6.00
		SSD=950.00
		WEDGE=None
		FIELD_INPLANE=100.00
		FIELD_CROSSPLANE=100.00
		FIELD_TYPE=RECTANGULAR
		GANTRY=0.00
		GANTRY_UPRIGHT_POSITION=0
		GANTRY_ROTATION=CW
		COLL_ANGLE=90.00
		COLL_OFFSET_INPLANE=0.00
		COLL_OFFSET_CROSSPLANE=0.00
		SCAN_DEVICE=STARCHECK
		ELECTROMETER=2D_ARRAY_INTERFACE
		DETECTOR=STARCHECK
		SCAN_CURVETYPE=INPLANE_PROFILE
		SCAN_DEPTH=0.00
		SCAN_OFFAXIS_CROSSPLANE=130.00
		SCAN_ANGLE=0.00
		SCAN_DIAGONAL=NOT_DIAGONAL
		MEAS_PRESET=TIME_PRESET
		MEAS_TIME=10.000
		MEAS_UNIT=GY
		PRESSURE=1013.25
		TEMPERATURE=20.00
		NORM_TEMPERATURE=20.00
		CORRECTION_FACTOR=1.0000
		CORRECTIONS=AIR_DENSITY_CORR;
		BEGIN_DATA
			-130.00		2.1574E-03
			-125.00		2.5537E-03
			-120.00		2.2615E-03
			-115.00		2.9923E-03
			-110.00		2.8877E-03
			-105.00		2.9561E-03
			-100.00		3.1962E-03
			-95.00		2.9438E-03
			-90.00		2.8568E-03
			-85.00		3.8033E-03
			-80.00		3.2861E-03
			-75.00		3.7947E-03
			-70.00		3.9779E-03
			-65.00		4.5369E-03
			-60.00		4.6800E-03
			-55.00		4.3664E-03
			-50.00		4.4141E-03
			-45.00		5.1562E-03
			-40.00		5.0885E-03
			-35.00		5.0895E-03
			-30.00		5.1657E-03
			-25.00		5.0040E-03
			-20.00		5.3989E-03
			-15.00		5.0889E-03
			-10.00		4.8200E-03
			-5.00		5.8275E-03
			0.00		6.1919E-03
			5.00		6.2578E-03
			10.00		5.6485E-03
			15.00		5.1719E-03
			20.00		5.7775E-03
			25.00		5.1484E-03
			30.00		4.6539E-03
			35.00		4.9518E-03
			40.00		5.3856E-03
			45.00		5.0195E-03
			50.00		4.6584E-03
			55.00		5.0937E-03
			60.00		4.8304E-03
			65.00		3.9139E-03
			70.00		3.9787E-03
			75.00		4.5576E-03
			80.00		3.8522E-03
			85.00		3.7699E-03
			90.00		3.3517E-03
			95.00		3.1722E-03
			100.00		3.7531E-03
			105.00		2.6202E-03
			110.00		2.6945E-03
			115.00		2.9833E-03
			120.00		2.6401E-03
			125.00		2.5647E-03
			130.00		2.3654E-03
		END_DATA
	END_SCAN  14
	BEGIN_SCAN  15
		TASK_NAME=MODE_INTERVAL
		PROGRAM=BeamAdjust 1.2
		MEAS_DATE=07-Oct-2010 13:57:20
		LINAC=A4
		MODALITY=X
		INPLANE_AXIS_DIR=TARGET_GUN
		CROSSPLANE_AXIS_DIR=LEFT_RIGHT
		DEPTH_AXIS_DIR=UP_DOWN
		ENERGY=6.00
		SSD=950.00
		WEDGE=None
		FIELD_INPLANE=100.00
		FIELD_CROSSPLANE=100.00
		FIELD_TYPE=RECTANGULAR
		GANTRY=0.00
		GANTRY_UPRIGHT_POSITION=0
		GANTRY_ROTATION=CW
		COLL_ANGLE=90.00
		COLL_OFFSET_INPLANE=0.00
		COLL_OFFSET_CROSSPLANE=0.00
		SCAN_DEVICE=STARCHECK
		ELECTROMETER=2D_ARRAY_INTERFACE
		DETECTOR=STARCHECK
		SCAN_CURVETYPE=INPLANE_PROFILE
		SCAN_DEPTH=0.00
		SCAN_OFFAXIS_CROSSPLANE=0.00
		SCAN_ANGLE=0.00
		SCAN_DIAGONAL=FIRST_DIAGONAL
		MEAS_PRESET=TIME_PRESET
		MEAS_TIME=10.000
		MEAS_UNIT=GY
		PRESSURE=1013.25
		TEMPERATURE=20.00
		NORM_TEMPERATURE=20.00
		CORRECTION_FACTOR=1.0000
		CORRECTIONS=AIR_DENSITY_CORR;
		BEGIN_DATA
			-172.40		2.8528E-03
			-169.40		3.1719E-03
			-166.40		3.8231E-03
			-163.40		4.3437E-03
			-160.40		4.2847E-03
			-157.40		4.2972E-03
			-154.40		4.2183E-03
			-151.40		3.9689E-03
			-148.40		4.7485E-03
			-145.40		5.5024E-03
			-142.40		5.4445E-03
			-139.40		6.0186E-03
			-136.40		6.1316E-03
			-133.40		6.9644E-03
			-130.40		7.6181E-03
			-127.40		7.7918E-03
			-124.40		8.3421E-03
			-121.40		9.5801E-03
			-118.40		10.297E-03
			-115.40		11.175E-03
			-112.40		11.613E-03
			-109.40		12.748E-03
			-106.40		14.419E-03
			-103.40		14.646E-03
			-100.40		16.342E-03
			-97.40		18.409E-03
			-94.40		20.603E-03
			-91.40		23.008E-03
			-88.40		25.866E-03
			-85.40		29.106E-03
			-82.40		34.650E-03
			-79.40		41.625E-03
			-76.40		58.615E-03
			-73.40		113.71E-03
			-70.40		282.14E-03
			-67.40		479.53E-03
			-64.40		575.31E-03
			-61.40		610.66E-03
			-58.40		626.97E-03
			-55.40		636.83E-03
			-52.40		643.38E-03
			-49.40		648.24E-03
			-46.40		650.46E-03
			-43.40		652.82E-03
			-40.40		655.44E-03
			-37.40		660.43E-03
			-34.40		659.28E-03
			-31.40		661.02E-03
			-28.40		659.98E-03
			-25.40		662.46E-03
			-22.40		662.56E-03
			-19.40		664.22E-03
			-16.40		667.45E-03
			-13.40		669.72E-03
			0.00		665.69E-03
			13.40		669.63E-03
			16.40		665.02E-03
			19.40		665.19E-03
			22.40		663.88E-03
			25.40		663.25E-03
			28.40		661.68E-03
			31.40		659.14E-03
			34.40		656.10E-03
			37.40		658.09E-03
			40.40		655.18E-03
			43.40		652.60E-03
			46.40		649.90E-03
			49.40		643.68E-03
			52.40		637.85E-03
			55.40		624.81E-03
			58.40		607.43E-03
			61.40		567.96E-03
			64.40		453.03E-03
			67.40		250.14E-03
			70.40		101.49E-03
			73.40		55.599E-03
			76.40		40.440E-03
			79.40		33.306E-03
			82.40		28.761E-03
			85.40		25.144E-03
			88.40		23.014E-03
			91.40		20.265E-03
			94.40		18.506E-03
			97.40		16.717E-03
			100.40		15.251E-03
			103.40		14.497E-03
			106.40		13.230E-03
			109.40		12.617E-03
			112.40		10.431E-03
			115.40		9.6651E-03
			118.40		8.8575E-03
			121.40		8.2047E-03
			124.40		7.4891E-03
			127.40		7.3549E-03
			130.40		7.2021E-03
			133.40		6.1767E-03
			136.40		5.4252E-03
			139.40		5.1962E-03
			142.40		4.8700E-03
			145.40		4.8649E-03
			148.40		5.0927E-03
			151.40		4.6316E-03
			154.40		4.0718E-03
			157.40		3.8058E-03
			160.40		2.8969E-03
			163.40		2.9966E-03
			166.40		3.2306E-03
			169.40		2.7799E-03
			172.40		2.9489E-03
		END_DATA
	END_SCAN  15
	BEGIN_SCAN  16
		TASK_NAME=MODE_INTERVAL
		PROGRAM=BeamAdjust 1.2
		MEAS_DATE=07-Oct-2010 13:57:20
		LINAC=A4
		MODALITY=X
		INPLANE_AXIS_DIR=GUN_TARGET
		CROSSPLANE_AXIS_DIR=LEFT_RIGHT
		DEPTH_AXIS_DIR=UP_DOWN
		ENERGY=6.00
		SSD=950.00
		WEDGE=None
		FIELD_INPLANE=100.00
		FIELD_CROSSPLANE=100.00
		FIELD_TYPE=RECTANGULAR
		GANTRY=0.00
		GANTRY_UPRIGHT_POSITION=0
		GANTRY_ROTATION=CW
		COLL_ANGLE=90.00
		COLL_OFFSET_INPLANE=0.00
		COLL_OFFSET_CROSSPLANE=0.00
		SCAN_DEVICE=STARCHECK
		ELECTROMETER=2D_ARRAY_INTERFACE
		DETECTOR=STARCHECK
		SCAN_CURVETYPE=INPLANE_PROFILE
		SCAN_DEPTH=0.00
		SCAN_OFFAXIS_CROSSPLANE=0.00
		SCAN_ANGLE=0.00
		SCAN_DIAGONAL=SECOND_DIAGONAL
		MEAS_PRESET=TIME_PRESET
		MEAS_TIME=10.000
		MEAS_UNIT=GY
		PRESSURE=1013.25
		TEMPERATURE=20.00
		NORM_TEMPERATURE=20.00
		CORRECTION_FACTOR=1.0000
		CORRECTIONS=AIR_DENSITY_CORR;
		BEGIN_DATA
			-172.40		2.9068E-03
			-169.40		3.2508E-03
			-166.40		3.1558E-03
			-163.40		3.0298E-03
			-160.40		3.6476E-03
			-157.40		3.8187E-03
			-154.40		4.1620E-03
			-151.40		4.4636E-03
			-148.40		4.5158E-03
			-145.40		4.5604E-03
			-142.40		5.9568E-03
			-139.40		5.4980E-03
			-136.40		5.7199E-03
			-133.40		6.3020E-03
			-130.40		6.9934E-03
			-127.40		7.5947E-03
			-124.40		8.2360E-03
			-121.40		8.9302E-03
			-118.40		9.3645E-03
			-115.40		9.9349E-03
			-112.40		10.920E-03
			-109.40		11.693E-03
			-106.40		12.768E-03
			-103.40		14.101E-03
			-100.40		16.156E-03
			-97.40		17.168E-03
			-94.40		18.395E-03
			-91.40		20.608E-03
			-88.40		22.531E-03
			-85.40		25.412E-03
			-82.40		29.435E-03
			-79.40		34.450E-03
			-76.40		42.885E-03
			-73.40		62.926E-03
			-70.40		129.69E-03
			-67.40		314.86E-03
			-64.40		500.30E-03
			-61.40		586.75E-03
			-58.40		620.54E-03
			-55.40		633.64E-03
			-52.40		645.69E-03
			-49.40		650.83E-03
			-46.40		654.32E-03
			-43.40		657.87E-03
			-40.40		659.88E-03
			-37.40		663.16E-03
			-34.40		663.05E-03
			-31.40		664.03E-03
			-28.40		666.28E-03
			-25.40		665.01E-03
			-22.40		663.20E-03
			-19.40		666.33E-03
			-16.40		668.56E-03
			-13.40		670.87E-03
			0.00		665.69E-03
			13.40		670.08E-03
			16.40		667.02E-03
			19.40		663.75E-03
			22.40		660.86E-03
			25.40		660.23E-03
			28.40		659.52E-03
			31.40		658.16E-03
			34.40		655.27E-03
			37.40		654.67E-03
			40.40		652.95E-03
			43.40		650.98E-03
			46.40		649.31E-03
			49.40		645.62E-03
			52.40		636.99E-03
			55.40		628.88E-03
			58.40		618.84E-03
			61.40		591.75E-03
			64.40		523.89E-03
			67.40		376.17E-03
			70.40		182.80E-03
			73.40		79.090E-03
			76.40		49.122E-03
			79.40		37.313E-03
			82.40		31.947E-03
			85.40		28.451E-03
			88.40		25.042E-03
			91.40		22.728E-03
			94.40		19.879E-03
			97.40		18.619E-03
			100.40		15.874E-03
			103.40		14.374E-03
			106.40		13.592E-03
			109.40		12.155E-03
			112.40		11.506E-03
			115.40		10.699E-03
			118.40		9.6459E-03
			121.40		8.5975E-03
			124.40		8.4280E-03
			127.40		7.5524E-03
			130.40		7.6175E-03
			133.40		6.6895E-03
			136.40		6.1600E-03
			139.40		6.5610E-03
			142.40		5.7221E-03
			145.40		5.1252E-03
			148.40		4.7809E-03
			151.40		4.3204E-03
			154.40		4.4433E-03
			157.40		4.0005E-03
			160.40		3.6565E-03
			163.40		4.0071E-03
			166.40		3.7910E-03
			169.40		2.9533E-03
			172.40		2.8188E-03
		END_DATA
	END_SCAN  16
END_SCAN_DATA
