BEGIN_SCAN_DATA
	FORMAT=CC-Export V1.9                  
	FILE_CREATION_DATE=07-Oct-2010 13:57:52
	LAST_MODIFIED=07-Oct-2010 13:57:52
	BEGIN_SCAN  1
		TASK_NAME=MODE_INTERVAL
		PROGRAM=BeamAdjust 1.2
		MEAS_DATE=07-Oct-2010 13:57:52
		LINAC=A4
		MODALITY=X
		INPLANE_AXIS_DIR=TARGET_GUN
		CROSSPLANE_AXIS_DIR=LEFT_RIGHT
		DEPTH_AXIS_DIR=UP_DOWN
		ENERGY=6.00
		SSD=950.00
		WEDGE=None
		FIELD_INPLANE=100.00
		FIELD_CROSSPLANE=100.00
		FIELD_TYPE=RECTANGULAR
		GANTRY=0.00
		GANTRY_UPRIGHT_POSITION=0
		GANTRY_ROTATION=CW
		COLL_ANGLE=90.00
		COLL_OFFSET_INPLANE=0.00
		COLL_OFFSET_CROSSPLANE=0.00
		SCAN_DEVICE=STARCHECK
		ELECTROMETER=2D_ARRAY_INTERFACE
		DETECTOR=STARCHECK
		SCAN_CURVETYPE=CROSSPLANE_PROFILE
		SCAN_DEPTH=0.00
		SCAN_OFFAXIS_INPLANE=-130.00
		SCAN_ANGLE=0.00
		SCAN_DIAGONAL=NOT_DIAGONAL
		MEAS_PRESET=TIME_PRESET
		MEAS_TIME=10.000
		MEAS_UNIT=GY
		PRESSURE=1013.25
		TEMPERATURE=20.00
		NORM_TEMPERATURE=20.00
		CORRECTION_FACTOR=1.0000
		CORRECTIONS=AIR_DENSITY_CORR;
		BEGIN_DATA
			-130.00		2.6292E-03
			-80.00		4.2045E-03
			-40.00		7.8005E-03
			40.00		6.8046E-03
			80.00		4.3140E-03
			130.00		2.3997E-03
		END_DATA
	END_SCAN  1
	BEGIN_SCAN  2
		TASK_NAME=MODE_INTERVAL
		PROGRAM=BeamAdjust 1.2
		MEAS_DATE=07-Oct-2010 13:57:52
		LINAC=A4
		MODALITY=X
		INPLANE_AXIS_DIR=TARGET_GUN
		CROSSPLANE_AXIS_DIR=LEFT_RIGHT
		DEPTH_AXIS_DIR=UP_DOWN
		ENERGY=6.00
		SSD=950.00
		WEDGE=None
		FIELD_INPLANE=100.00
		FIELD_CROSSPLANE=100.00
		FIELD_TYPE=RECTANGULAR
		GANTRY=0.00
		GANTRY_UPRIGHT_POSITION=0
		GANTRY_ROTATION=CW
		COLL_ANGLE=90.00
		COLL_OFFSET_INPLANE=0.00
		COLL_OFFSET_CROSSPLANE=0.00
		SCAN_DEVICE=STARCHECK
		ELECTROMETER=2D_ARRAY_INTERFACE
		DETECTOR=STARCHECK
		SCAN_CURVETYPE=CROSSPLANE_PROFILE
		SCAN_DEPTH=0.00
		SCAN_OFFAXIS_INPLANE=-100.00
		SCAN_ANGLE=0.00
		SCAN_DIAGONAL=NOT_DIAGONAL
		MEAS_PRESET=TIME_PRESET
		MEAS_TIME=10.000
		MEAS_UNIT=GY
		PRESSURE=1013.25
		TEMPERATURE=20.00
		NORM_TEMPERATURE=20.00
		CORRECTION_FACTOR=1.0000
		CORRECTIONS=AIR_DENSITY_CORR;
		BEGIN_DATA
			-60.00		10.881E-03
			-30.00		14.981E-03
			30.00		14.837E-03
			60.00		9.9388E-03
		END_DATA
	END_SCAN  2
	BEGIN_SCAN  3
		TASK_NAME=MODE_INTERVAL
		PROGRAM=BeamAdjust 1.2
		MEAS_DATE=07-Oct-2010 13:57:52
		LINAC=A4
		MODALITY=X
		INPLANE_AXIS_DIR=TARGET_GUN
		CROSSPLANE_AXIS_DIR=LEFT_RIGHT
		DEPTH_AXIS_DIR=UP_DOWN
		ENERGY=6.00
		SSD=950.00
		WEDGE=None
		FIELD_INPLANE=100.00
		FIELD_CROSSPLANE=100.00
		FIELD_TYPE=RECTANGULAR
		GANTRY=0.00
		GANTRY_UPRIGHT_POSITION=0
		GANTRY_ROTATION=CW
		COLL_ANGLE=90.00
		COLL_OFFSET_INPLANE=0.00
		COLL_OFFSET_CROSSPLANE=0.00
		SCAN_DEVICE=STARCHECK
		ELECTROMETER=2D_ARRAY_INTERFACE
		DETECTOR=STARCHECK
		SCAN_CURVETYPE=CROSSPLANE_PROFILE
		SCAN_DEPTH=0.00
		SCAN_OFFAXIS_INPLANE=-50.00
		SCAN_ANGLE=0.00
		SCAN_DIAGONAL=NOT_DIAGONAL
		MEAS_PRESET=TIME_PRESET
		MEAS_TIME=10.000
		MEAS_UNIT=GY
		PRESSURE=1013.25
		TEMPERATURE=20.00
		NORM_TEMPERATURE=20.00
		CORRECTION_FACTOR=1.0000
		CORRECTIONS=AIR_DENSITY_CORR;
		BEGIN_DATA
			-30.00		391.23E-03
			-15.00		358.18E-03
			15.00		384.16E-03
			30.00		384.10E-03
		END_DATA
	END_SCAN  3
	BEGIN_SCAN  4
		TASK_NAME=MODE_INTERVAL
		PROGRAM=BeamAdjust 1.2
		MEAS_DATE=07-Oct-2010 13:57:52
		LINAC=A4
		MODALITY=X
		INPLANE_AXIS_DIR=TARGET_GUN
		CROSSPLANE_AXIS_DIR=LEFT_RIGHT
		DEPTH_AXIS_DIR=UP_DOWN
		ENERGY=6.00
		SSD=950.00
		WEDGE=None
		FIELD_INPLANE=100.00
		FIELD_CROSSPLANE=100.00
		FIELD_TYPE=RECTANGULAR
		GANTRY=0.00
		GANTRY_UPRIGHT_POSITION=0
		GANTRY_ROTATION=CW
		COLL_ANGLE=90.00
		COLL_OFFSET_INPLANE=0.00
		COLL_OFFSET_CROSSPLANE=0.00
		SCAN_DEVICE=STARCHECK
		ELECTROMETER=2D_ARRAY_INTERFACE
		DETECTOR=STARCHECK
		SCAN_CURVETYPE=CROSSPLANE_PROFILE
		SCAN_DEPTH=0.00
		SCAN_OFFAXIS_INPLANE=0.00
		SCAN_ANGLE=0.00
		SCAN_DIAGONAL=NOT_DIAGONAL
		MEAS_PRESET=TIME_PRESET
		MEAS_TIME=10.000
		MEAS_UNIT=GY
		PRESSURE=1013.25
		TEMPERATURE=20.00
		NORM_TEMPERATURE=20.00
		CORRECTION_FACTOR=1.0000
		CORRECTIONS=AIR_DENSITY_CORR;
		BEGIN_DATA
			-126.00		7.0692E-03
			-123.00		7.7922E-03
			-120.00		8.4114E-03
			-117.00		9.5474E-03
			-114.00		9.2749E-03
			-111.00		9.8968E-03
			-108.00		10.938E-03
			-105.00		11.532E-03
			-102.00		12.517E-03
			-99.00		13.744E-03
			-96.00		14.621E-03
			-93.00		16.106E-03
			-90.00		17.640E-03
			-87.00		19.027E-03
			-84.00		21.440E-03
			-81.00		23.537E-03
			-78.00		25.618E-03
			-75.00		29.186E-03
			-72.00		32.310E-03
			-69.00		36.639E-03
			-66.00		42.690E-03
			-63.00		49.918E-03
			-60.00		61.964E-03
			-57.00		87.897E-03
			-54.00		164.89E-03
			-51.00		442.93E-03
			-48.00		597.44E-03
			-45.00		628.72E-03
			-42.00		641.14E-03
			-39.00		651.45E-03
			-36.00		656.82E-03
			-33.00		655.83E-03
			-30.00		657.56E-03
			-27.00		659.89E-03
			-24.00		662.37E-03
			-21.00		662.26E-03
			-18.00		668.51E-03
			-15.00		668.17E-03
			-12.00		667.09E-03
			-9.00		669.16E-03
			-6.00		668.19E-03
			0.00		667.98E-03
			6.00		670.90E-03
			9.00		670.42E-03
			12.00		666.94E-03
			15.00		666.61E-03
			18.00		665.78E-03
			21.00		663.85E-03
			24.00		660.42E-03
			27.00		664.16E-03
			30.00		661.68E-03
			33.00		659.27E-03
			36.00		654.67E-03
			39.00		646.50E-03
			42.00		630.38E-03
			45.00		587.59E-03
			48.00		389.74E-03
			51.00		139.74E-03
			54.00		80.988E-03
			57.00		60.283E-03
			60.00		48.577E-03
			63.00		41.187E-03
			66.00		35.589E-03
			69.00		31.515E-03
			72.00		28.224E-03
			75.00		25.403E-03
			78.00		22.983E-03
			81.00		20.832E-03
			84.00		19.008E-03
			87.00		17.028E-03
			90.00		16.169E-03
			93.00		14.593E-03
			96.00		13.299E-03
			99.00		12.938E-03
			102.00		11.476E-03
			105.00		10.868E-03
			108.00		10.194E-03
			111.00		9.0286E-03
			114.00		8.4591E-03
			117.00		7.6147E-03
			120.00		7.1535E-03
			123.00		7.3147E-03
			126.00		6.9317E-03
		END_DATA
	END_SCAN  4
	BEGIN_SCAN  5
		TASK_NAME=MODE_INTERVAL
		PROGRAM=BeamAdjust 1.2
		MEAS_DATE=07-Oct-2010 13:57:52
		LINAC=A4
		MODALITY=X
		INPLANE_AXIS_DIR=TARGET_GUN
		CROSSPLANE_AXIS_DIR=LEFT_RIGHT
		DEPTH_AXIS_DIR=UP_DOWN
		ENERGY=6.00
		SSD=950.00
		WEDGE=None
		FIELD_INPLANE=100.00
		FIELD_CROSSPLANE=100.00
		FIELD_TYPE=RECTANGULAR
		GANTRY=0.00
		GANTRY_UPRIGHT_POSITION=0
		GANTRY_ROTATION=CW
		COLL_ANGLE=90.00
		COLL_OFFSET_INPLANE=0.00
		COLL_OFFSET_CROSSPLANE=0.00
		SCAN_DEVICE=STARCHECK
		ELECTROMETER=2D_ARRAY_INTERFACE
		DETECTOR=STARCHECK
		SCAN_CURVETYPE=CROSSPLANE_PROFILE
		SCAN_DEPTH=0.00
		SCAN_OFFAXIS_INPLANE=50.00
		SCAN_ANGLE=0.00
		SCAN_DIAGONAL=NOT_DIAGONAL
		MEAS_PRESET=TIME_PRESET
		MEAS_TIME=10.000
		MEAS_UNIT=GY
		PRESSURE=1013.25
		TEMPERATURE=20.00
		NORM_TEMPERATURE=20.00
		CORRECTION_FACTOR=1.0000
		CORRECTIONS=AIR_DENSITY_CORR;
		BEGIN_DATA
			-30.00		270.46E-03
			-15.00		287.04E-03
			15.00		257.66E-03
			30.00		257.06E-03
		END_DATA
	END_SCAN  5
	BEGIN_SCAN  6
		TASK_NAME=MODE_INTERVAL
		PROGRAM=BeamAdjust 1.2
		MEAS_DATE=07-Oct-2010 13:57:52
		LINAC=A4
		MODALITY=X
		INPLANE_AXIS_DIR=TARGET_GUN
		CROSSPLANE_AXIS_DIR=LEFT_RIGHT
		DEPTH_AXIS_DIR=UP_DOWN
		ENERGY=6.00
		SSD=950.00
		WEDGE=None
		FIELD_INPLANE=100.00
		FIELD_CROSSPLANE=100.00
		FIELD_TYPE=RECTANGULAR
		GANTRY=0.00
		GANTRY_UPRIGHT_POSITION=0
		GANTRY_ROTATION=CW
		COLL_ANGLE=90.00
		COLL_OFFSET_INPLANE=0.00
		COLL_OFFSET_CROSSPLANE=0.00
		SCAN_DEVICE=STARCHECK
		ELECTROMETER=2D_ARRAY_INTERFACE
		DETECTOR=STARCHECK
		SCAN_CURVETYPE=CROSSPLANE_PROFILE
		SCAN_DEPTH=0.00
		SCAN_OFFAXIS_INPLANE=100.00
		SCAN_ANGLE=0.00
		SCAN_DIAGONAL=NOT_DIAGONAL
		MEAS_PRESET=TIME_PRESET
		MEAS_TIME=10.000
		MEAS_UNIT=GY
		PRESSURE=1013.25
		TEMPERATURE=20.00
		NORM_TEMPERATURE=20.00
		CORRECTION_FACTOR=1.0000
		CORRECTIONS=AIR_DENSITY_CORR;
		BEGIN_DATA
			-60.00		10.803E-03
			-30.00		15.117E-03
			30.00		15.073E-03
			60.00		9.0364E-03
		END_DATA
	END_SCAN  6
	BEGIN_SCAN  7
		TASK_NAME=MODE_INTERVAL
		PROGRAM=BeamAdjust 1.2
		MEAS_DATE=07-Oct-2010 13:57:52
		LINAC=A4
		MODALITY=X
		INPLANE_AXIS_DIR=TARGET_GUN
		CROSSPLANE_AXIS_DIR=LEFT_RIGHT
		DEPTH_AXIS_DIR=UP_DOWN
		ENERGY=6.00
		SSD=950.00
		WEDGE=None
		FIELD_INPLANE=100.00
		FIELD_CROSSPLANE=100.00
		FIELD_TYPE=RECTANGULAR
		GANTRY=0.00
		GANTRY_UPRIGHT_POSITION=0
		GANTRY_ROTATION=CW
		COLL_ANGLE=90.00
		COLL_OFFSET_INPLANE=0.00
		COLL_OFFSET_CROSSPLANE=0.00
		SCAN_DEVICE=STARCHECK
		ELECTROMETER=2D_ARRAY_INTERFACE
		DETECTOR=STARCHECK
		SCAN_CURVETYPE=CROSSPLANE_PROFILE
		SCAN_DEPTH=0.00
		SCAN_OFFAXIS_INPLANE=130.00
		SCAN_ANGLE=0.00
		SCAN_DIAGONAL=NOT_DIAGONAL
		MEAS_PRESET=TIME_PRESET
		MEAS_TIME=10.000
		MEAS_UNIT=GY
		PRESSURE=1013.25
		TEMPERATURE=20.00
		NORM_TEMPERATURE=20.00
		CORRECTION_FACTOR=1.0000
		CORRECTIONS=AIR_DENSITY_CORR;
		BEGIN_DATA
			-130.00		1.6032E-03
			-80.00		3.9426E-03
			-40.00		7.7371E-03
			40.00		7.4429E-03
			80.00		4.0700E-03
			130.00		2.1835E-03
		END_DATA
	END_SCAN  7
	BEGIN_SCAN  8
		TASK_NAME=MODE_INTERVAL
		PROGRAM=BeamAdjust 1.2
		MEAS_DATE=07-Oct-2010 13:57:52
		LINAC=A4
		MODALITY=X
		INPLANE_AXIS_DIR=TARGET_GUN
		CROSSPLANE_AXIS_DIR=LEFT_RIGHT
		DEPTH_AXIS_DIR=UP_DOWN
		ENERGY=6.00
		SSD=950.00
		WEDGE=None
		FIELD_INPLANE=100.00
		FIELD_CROSSPLANE=100.00
		FIELD_TYPE=RECTANGULAR
		GANTRY=0.00
		GANTRY_UPRIGHT_POSITION=0
		GANTRY_ROTATION=CW
		COLL_ANGLE=90.00
		COLL_OFFSET_INPLANE=0.00
		COLL_OFFSET_CROSSPLANE=0.00
		SCAN_DEVICE=STARCHECK
		ELECTROMETER=2D_ARRAY_INTERFACE
		DETECTOR=STARCHECK
		SCAN_CURVETYPE=INPLANE_PROFILE
		SCAN_DEPTH=0.00
		SCAN_OFFAXIS_CROSSPLANE=-130.00
		SCAN_ANGLE=0.00
		SCAN_DIAGONAL=NOT_DIAGONAL
		MEAS_PRESET=TIME_PRESET
		MEAS_TIME=10.000
		MEAS_UNIT=GY
		PRESSURE=1013.25
		TEMPERATURE=20.00
		NORM_TEMPERATURE=20.00
		CORRECTION_FACTOR=1.0000
		CORRECTIONS=AIR_DENSITY_CORR;
		BEGIN_DATA
			-130.00		2.6292E-03
			-125.00		2.9459E-03
			-120.00		3.2149E-03
			-115.00		3.4618E-03
			-110.00		3.6852E-03
			-105.00		3.4178E-03
			-100.00		3.9662E-03
			-95.00		4.6308E-03
			-90.00		4.7517E-03
			-85.00		4.5509E-03
			-80.00		4.6377E-03
			-75.00		4.7214E-03
			-70.00		5.4234E-03
			-65.00		5.5701E-03
			-60.00		5.2912E-03
			-55.00		6.2463E-03
			-50.00		4.6228E-03
			-45.00		4.7398E-03
			-40.00		4.9359E-03
			-35.00		6.0933E-03
			-30.00		5.6408E-03
			-25.00		5.4886E-03
			-20.00		5.5921E-03
			-15.00		5.4403E-03
			-10.00		5.7347E-03
			-5.00		6.8869E-03
			0.00		6.5867E-03
			5.00		6.8088E-03
			10.00		6.2152E-03
			15.00		6.0048E-03
			20.00		6.0593E-03
			25.00		5.3203E-03
			30.00		5.8827E-03
			35.00		5.7535E-03
			40.00		5.3549E-03
			45.00		4.9962E-03
			50.00		5.0830E-03
			55.00		4.7217E-03
			60.00		4.8878E-03
			65.00		4.6707E-03
			70.00		4.3624E-03
			75.00		4.3538E-03
			80.00		3.6384E-03
			85.00		3.6559E-03
			90.00		3.9110E-03
			95.00		3.4927E-03
			100.00		3.0325E-03
			105.00		2.8373E-03
			110.00		2.7752E-03
			115.00		2.5579E-03
			120.00		3.0136E-03
			125.00		2.7031E-03
			130.00		1.6032E-03
		END_DATA
	END_SCAN  8
	BEGIN_SCAN  9
		TASK_NAME=MODE_INTERVAL
		PROGRAM=BeamAdjust 1.2
		MEAS_DATE=07-Oct-2010 13:57:52
		LINAC=A4
		MODALITY=X
		INPLANE_AXIS_DIR=TARGET_GUN
		CROSSPLANE_AXIS_DIR=LEFT_RIGHT
		DEPTH_AXIS_DIR=UP_DOWN
		ENERGY=6.00
		SSD=950.00
		WEDGE=None
		FIELD_INPLANE=100.00
		FIELD_CROSSPLANE=100.00
		FIELD_TYPE=RECTANGULAR
		GANTRY=0.00
		GANTRY_UPRIGHT_POSITION=0
		GANTRY_ROTATION=CW
		COLL_ANGLE=90.00
		COLL_OFFSET_INPLANE=0.00
		COLL_OFFSET_CROSSPLANE=0.00
		SCAN_DEVICE=STARCHECK
		ELECTROMETER=2D_ARRAY_INTERFACE
		DETECTOR=STARCHECK
		SCAN_CURVETYPE=INPLANE_PROFILE
		SCAN_DEPTH=0.00
		SCAN_OFFAXIS_CROSSPLANE=-100.00
		SCAN_ANGLE=0.00
		SCAN_DIAGONAL=NOT_DIAGONAL
		MEAS_PRESET=TIME_PRESET
		MEAS_TIME=10.000
		MEAS_UNIT=GY
		PRESSURE=1013.25
		TEMPERATURE=20.00
		NORM_TEMPERATURE=20.00
		CORRECTION_FACTOR=1.0000
		CORRECTIONS=AIR_DENSITY_CORR;
		BEGIN_DATA
			-60.00		9.2641E-03
			-30.00		11.117E-03
			30.00		10.741E-03
			60.00		8.6387E-03
		END_DATA
	END_SCAN  9
	BEGIN_SCAN  10
		TASK_NAME=MODE_INTERVAL
		PROGRAM=BeamAdjust 1.2
		MEAS_DATE=07-Oct-2010 13:57:52
		LINAC=A4
		MODALITY=X
		INPLANE_AXIS_DIR=TARGET_GUN
		CROSSPLANE_AXIS_DIR=LEFT_RIGHT
		DEPTH_AXIS_DIR=UP_DOWN
		ENERGY=6.00
		SSD=950.00
		WEDGE=None
		FIELD_INPLANE=100.00
		FIELD_CROSSPLANE=100.00
		FIELD_TYPE=RECTANGULAR
		GANTRY=0.00
		GANTRY_UPRIGHT_POSITION=0
		GANTRY_ROTATION=CW
		COLL_ANGLE=90.00
		COLL_OFFSET_INPLANE=0.00
		COLL_OFFSET_CROSSPLANE=0.00
		SCAN_DEVICE=STARCHECK
		ELECTROMETER=2D_ARRAY_INTERFACE
		DETECTOR=STARCHECK
		SCAN_CURVETYPE=INPLANE_PROFILE
		SCAN_DEPTH=0.00
		SCAN_OFFAXIS_CROSSPLANE=-50.00
		SCAN_ANGLE=0.00
		SCAN_DIAGONAL=NOT_DIAGONAL
		MEAS_PRESET=TIME_PRESET
		MEAS_TIME=10.000
		MEAS_UNIT=GY
		PRESSURE=1013.25
		TEMPERATURE=20.00
		NORM_TEMPERATURE=20.00
		CORRECTION_FACTOR=1.0000
		CORRECTIONS=AIR_DENSITY_CORR;
		BEGIN_DATA
			-30.00		514.82E-03
			-15.00		511.63E-03
			15.00		503.97E-03
			30.00		493.81E-03
		END_DATA
	END_SCAN  10
	BEGIN_SCAN  11
		TASK_NAME=MODE_INTERVAL
		PROGRAM=BeamAdjust 1.2
		MEAS_DATE=07-Oct-2010 13:57:52
		LINAC=A4
		MODALITY=X
		INPLANE_AXIS_DIR=TARGET_GUN
		CROSSPLANE_AXIS_DIR=LEFT_RIGHT
		DEPTH_AXIS_DIR=UP_DOWN
		ENERGY=6.00
		SSD=950.00
		WEDGE=None
		FIELD_INPLANE=100.00
		FIELD_CROSSPLANE=100.00
		FIELD_TYPE=RECTANGULAR
		GANTRY=0.00
		GANTRY_UPRIGHT_POSITION=0
		GANTRY_ROTATION=CW
		COLL_ANGLE=90.00
		COLL_OFFSET_INPLANE=0.00
		COLL_OFFSET_CROSSPLANE=0.00
		SCAN_DEVICE=STARCHECK
		ELECTROMETER=2D_ARRAY_INTERFACE
		DETECTOR=STARCHECK
		SCAN_CURVETYPE=INPLANE_PROFILE
		SCAN_DEPTH=0.00
		SCAN_OFFAXIS_CROSSPLANE=0.00
		SCAN_ANGLE=0.00
		SCAN_DIAGONAL=NOT_DIAGONAL
		MEAS_PRESET=TIME_PRESET
		MEAS_TIME=10.000
		MEAS_UNIT=GY
		PRESSURE=1013.25
		TEMPERATURE=20.00
		NORM_TEMPERATURE=20.00
		CORRECTION_FACTOR=1.0000
		CORRECTIONS=AIR_DENSITY_CORR;
		BEGIN_DATA
			-126.00		8.9694E-03
			-123.00		8.7878E-03
			-120.00		10.373E-03
			-117.00		12.100E-03
			-114.00		11.757E-03
			-111.00		12.751E-03
			-108.00		13.444E-03
			-105.00		14.609E-03
			-102.00		16.335E-03
			-99.00		16.963E-03
			-96.00		18.243E-03
			-93.00		20.443E-03
			-90.00		21.756E-03
			-87.00		23.541E-03
			-84.00		26.210E-03
			-81.00		28.385E-03
			-78.00		30.719E-03
			-75.00		33.677E-03
			-72.00		36.857E-03
			-69.00		40.601E-03
			-66.00		46.154E-03
			-63.00		52.642E-03
			-60.00		62.354E-03
			-57.00		82.276E-03
			-54.00		132.80E-03
			-51.00		301.14E-03
			-48.00		554.39E-03
			-45.00		623.07E-03
			-42.00		642.94E-03
			-39.00		651.97E-03
			-36.00		657.51E-03
			-33.00		661.41E-03
			-30.00		664.65E-03
			-27.00		665.99E-03
			-24.00		665.24E-03
			-21.00		664.35E-03
			-18.00		670.88E-03
			-15.00		669.46E-03
			-12.00		670.51E-03
			-9.00		670.53E-03
			-6.00		668.08E-03
			0.00		667.98E-03
			6.00		672.14E-03
			9.00		671.14E-03
			12.00		670.26E-03
			15.00		668.23E-03
			18.00		664.57E-03
			21.00		663.60E-03
			24.00		660.03E-03
			27.00		661.60E-03
			30.00		657.50E-03
			33.00		655.60E-03
			36.00		653.22E-03
			39.00		641.95E-03
			42.00		629.97E-03
			45.00		597.03E-03
			48.00		435.54E-03
			51.00		189.38E-03
			54.00		98.596E-03
			57.00		70.002E-03
			60.00		57.189E-03
			63.00		49.166E-03
			66.00		43.603E-03
			69.00		38.934E-03
			72.00		35.198E-03
			75.00		31.604E-03
			78.00		28.247E-03
			81.00		26.287E-03
			84.00		24.413E-03
			87.00		22.505E-03
			90.00		21.103E-03
			93.00		19.354E-03
			96.00		18.292E-03
			99.00		16.767E-03
			102.00		15.250E-03
			105.00		13.886E-03
			108.00		13.318E-03
			111.00		12.269E-03
			114.00		11.845E-03
			117.00		10.736E-03
			120.00		10.425E-03
			123.00		9.8309E-03
			126.00		8.8717E-03
		END_DATA
	END_SCAN  11
	BEGIN_SCAN  12
		TASK_NAME=MODE_INTERVAL
		PROGRAM=BeamAdjust 1.2
		MEAS_DATE=07-Oct-2010 13:57:52
		LINAC=A4
		MODALITY=X
		INPLANE_AXIS_DIR=TARGET_GUN
		CROSSPLANE_AXIS_DIR=LEFT_RIGHT
		DEPTH_AXIS_DIR=UP_DOWN
		ENERGY=6.00
		SSD=950.00
		WEDGE=None
		FIELD_INPLANE=100.00
		FIELD_CROSSPLANE=100.00
		FIELD_TYPE=RECTANGULAR
		GANTRY=0.00
		GANTRY_UPRIGHT_POSITION=0
		GANTRY_ROTATION=CW
		COLL_ANGLE=90.00
		COLL_OFFSET_INPLANE=0.00
		COLL_OFFSET_CROSSPLANE=0.00
		SCAN_DEVICE=STARCHECK
		ELECTROMETER=2D_ARRAY_INTERFACE
		DETECTOR=STARCHECK
		SCAN_CURVETYPE=INPLANE_PROFILE
		SCAN_DEPTH=0.00
		SCAN_OFFAXIS_CROSSPLANE=50.00
		SCAN_ANGLE=0.00
		SCAN_DIAGONAL=NOT_DIAGONAL
		MEAS_PRESET=TIME_PRESET
		MEAS_TIME=10.000
		MEAS_UNIT=GY
		PRESSURE=1013.25
		TEMPERATURE=20.00
		NORM_TEMPERATURE=20.00
		CORRECTION_FACTOR=1.0000
		CORRECTIONS=AIR_DENSITY_CORR;
		BEGIN_DATA
			-30.00		203.34E-03
			-15.00		212.19E-03
			15.00		219.40E-03
			30.00		219.79E-03
		END_DATA
	END_SCAN  12
	BEGIN_SCAN  13
		TASK_NAME=MODE_INTERVAL
		PROGRAM=BeamAdjust 1.2
		MEAS_DATE=07-Oct-2010 13:57:52
		LINAC=A4
		MODALITY=X
		INPLANE_AXIS_DIR=TARGET_GUN
		CROSSPLANE_AXIS_DIR=LEFT_RIGHT
		DEPTH_AXIS_DIR=UP_DOWN
		ENERGY=6.00
		SSD=950.00
		WEDGE=None
		FIELD_INPLANE=100.00
		FIELD_CROSSPLANE=100.00
		FIELD_TYPE=RECTANGULAR
		GANTRY=0.00
		GANTRY_UPRIGHT_POSITION=0
		GANTRY_ROTATION=CW
		COLL_ANGLE=90.00
		COLL_OFFSET_INPLANE=0.00
		COLL_OFFSET_CROSSPLANE=0.00
		SCAN_DEVICE=STARCHECK
		ELECTROMETER=2D_ARRAY_INTERFACE
		DETECTOR=STARCHECK
		SCAN_CURVETYPE=INPLANE_PROFILE
		SCAN_DEPTH=0.00
		SCAN_OFFAXIS_CROSSPLANE=100.00
		SCAN_ANGLE=0.00
		SCAN_DIAGONAL=NOT_DIAGONAL
		MEAS_PRESET=TIME_PRESET
		MEAS_TIME=10.000
		MEAS_UNIT=GY
		PRESSURE=1013.25
		TEMPERATURE=20.00
		NORM_TEMPERATURE=20.00
		CORRECTION_FACTOR=1.0000
		CORRECTIONS=AIR_DENSITY_CORR;
		BEGIN_DATA
			-60.00		7.6855E-03
			-30.00		9.9204E-03
			30.00		10.118E-03
			60.00		7.2832E-03
		END_DATA
	END_SCAN  13
	BEGIN_SCAN  14
		TASK_NAME=MODE_INTERVAL
		PROGRAM=BeamAdjust 1.2
		MEAS_DATE=07-Oct-2010 13:57:52
		LINAC=A4
		MODALITY=X
		INPLANE_AXIS_DIR=TARGET_GUN
		CROSSPLANE_AXIS_DIR=LEFT_RIGHT
		DEPTH_AXIS_DIR=UP_DOWN
		ENERGY=6.00
		SSD=950.00
		WEDGE=None
		FIELD_INPLANE=100.00
		FIELD_CROSSPLANE=100.00
		FIELD_TYPE=RECTANGULAR
		GANTRY=0.00
		GANTRY_UPRIGHT_POSITION=0
		GANTRY_ROTATION=CW
		COLL_ANGLE=90.00
		COLL_OFFSET_INPLANE=0.00
		COLL_OFFSET_CROSSPLANE=0.00
		SCAN_DEVICE=STARCHECK
		ELECTROMETER=2D_ARRAY_INTERFACE
		DETECTOR=STARCHECK
		SCAN_CURVETYPE=INPLANE_PROFILE
		SCAN_DEPTH=0.00
		SCAN_OFFAXIS_CROSSPLANE=130.00
		SCAN_ANGLE=0.00
		SCAN_DIAGONAL=NOT_DIAGONAL
		MEAS_PRESET=TIME_PRESET
		MEAS_TIME=10.000
		MEAS_UNIT=GY
		PRESSURE=1013.25
		TEMPERATURE=20.00
		NORM_TEMPERATURE=20.00
		CORRECTION_FACTOR=1.0000
		CORRECTIONS=AIR_DENSITY_CORR;
		BEGIN_DATA
			-130.00		2.3997E-03
			-125.00		2.6858E-03
			-120.00		2.4861E-03
			-115.00		2.8501E-03
			-110.00		2.7060E-03
			-105.00		2.6344E-03
			-100.00		3.2616E-03
			-95.00		3.1503E-03
			-90.00		2.6036E-03
			-85.00		3.7709E-03
			-80.00		3.5014E-03
			-75.00		3.4814E-03
			-70.00		3.9087E-03
			-65.00		4.0897E-03
			-60.00		4.9981E-03
			-55.00		4.5273E-03
			-50.00		4.2324E-03
			-45.00		4.8065E-03
			-40.00		4.9467E-03
			-35.00		5.3631E-03
			-30.00		5.0261E-03
			-25.00		5.0099E-03
			-20.00		5.0591E-03
			-15.00		5.1140E-03
			-10.00		4.7668E-03
			-5.00		5.9407E-03
			0.00		5.9538E-03
			5.00		5.6271E-03
			10.00		6.1898E-03
			15.00		5.1881E-03
			20.00		5.5066E-03
			25.00		5.4836E-03
			30.00		4.7549E-03
			35.00		5.1842E-03
			40.00		5.5474E-03
			45.00		4.7065E-03
			50.00		4.7587E-03
			55.00		5.0819E-03
			60.00		4.3966E-03
			65.00		3.9580E-03
			70.00		3.8918E-03
			75.00		3.9006E-03
			80.00		4.5938E-03
			85.00		3.8917E-03
			90.00		3.2043E-03
			95.00		3.2450E-03
			100.00		3.4353E-03
			105.00		2.4899E-03
			110.00		2.7684E-03
			115.00		2.8272E-03
			120.00		2.4277E-03
			125.00		2.3774E-03
			130.00		2.1835E-03
		END_DATA
	END_SCAN  14
	BEGIN_SCAN  15
		TASK_NAME=MODE_INTERVAL
		PROGRAM=BeamAdjust 1.2
		MEAS_DATE=07-Oct-2010 13:57:52
		LINAC=A4
		MODALITY=X
		INPLANE_AXIS_DIR=TARGET_GUN
		CROSSPLANE_AXIS_DIR=LEFT_RIGHT
		DEPTH_AXIS_DIR=UP_DOWN
		ENERGY=6.00
		SSD=950.00
		WEDGE=None
		FIELD_INPLANE=100.00
		FIELD_CROSSPLANE=100.00
		FIELD_TYPE=RECTANGULAR
		GANTRY=0.00
		GANTRY_UPRIGHT_POSITION=0
		GANTRY_ROTATION=CW
		COLL_ANGLE=90.00
		COLL_OFFSET_INPLANE=0.00
		COLL_OFFSET_CROSSPLANE=0.00
		SCAN_DEVICE=STARCHECK
		ELECTROMETER=2D_ARRAY_INTERFACE
		DETECTOR=STARCHECK
		SCAN_CURVETYPE=INPLANE_PROFILE
		SCAN_DEPTH=0.00
		SCAN_OFFAXIS_CROSSPLANE=0.00
		SCAN_ANGLE=0.00
		SCAN_DIAGONAL=FIRST_DIAGONAL
		MEAS_PRESET=TIME_PRESET
		MEAS_TIME=10.000
		MEAS_UNIT=GY
		PRESSURE=1013.25
		TEMPERATURE=20.00
		NORM_TEMPERATURE=20.00
		CORRECTION_FACTOR=1.0000
		CORRECTIONS=AIR_DENSITY_CORR;
		BEGIN_DATA
			-172.40		2.5292E-03
			-169.40		3.1959E-03
			-166.40		4.1225E-03
			-163.40		3.9928E-03
			-160.40		4.5428E-03
			-157.40		4.4938E-03
			-154.40		4.2183E-03
			-151.40		4.3893E-03
			-148.40		4.6844E-03
			-145.40		5.3088E-03
			-142.40		5.8481E-03
			-139.40		6.3969E-03
			-136.40		6.4235E-03
			-133.40		7.2421E-03
			-130.40		7.3922E-03
			-127.40		7.8333E-03
			-124.40		8.4429E-03
			-121.40		9.2648E-03
			-118.40		10.428E-03
			-115.40		10.937E-03
			-112.40		11.876E-03
			-109.40		13.244E-03
			-106.40		14.299E-03
			-103.40		15.099E-03
			-100.40		16.291E-03
			-97.40		18.926E-03
			-94.40		20.898E-03
			-91.40		23.292E-03
			-88.40		26.413E-03
			-85.40		29.523E-03
			-82.40		34.927E-03
			-79.40		43.012E-03
			-76.40		60.732E-03
			-73.40		121.04E-03
			-70.40		296.03E-03
			-67.40		486.34E-03
			-64.40		579.37E-03
			-61.40		613.24E-03
			-58.40		629.37E-03
			-55.40		638.78E-03
			-52.40		645.18E-03
			-49.40		649.77E-03
			-46.40		652.05E-03
			-43.40		654.40E-03
			-40.40		657.26E-03
			-37.40		661.58E-03
			-34.40		661.21E-03
			-31.40		662.92E-03
			-28.40		661.45E-03
			-25.40		664.36E-03
			-22.40		664.73E-03
			-19.40		665.53E-03
			-16.40		669.32E-03
			-13.40		671.36E-03
			0.00		667.98E-03
			13.40		670.93E-03
			16.40		666.78E-03
			19.40		666.52E-03
			22.40		665.44E-03
			25.40		664.33E-03
			28.40		663.55E-03
			31.40		660.47E-03
			34.40		657.48E-03
			37.40		659.60E-03
			40.40		656.78E-03
			43.40		653.88E-03
			46.40		651.58E-03
			49.40		644.75E-03
			52.40		638.71E-03
			55.40		625.45E-03
			58.40		606.82E-03
			61.40		564.96E-03
			64.40		442.04E-03
			67.40		235.51E-03
			70.40		96.483E-03
			73.40		54.086E-03
			76.40		39.675E-03
			79.40		33.260E-03
			82.40		28.434E-03
			85.40		25.075E-03
			88.40		23.005E-03
			91.40		20.210E-03
			94.40		18.350E-03
			97.40		16.696E-03
			100.40		15.078E-03
			103.40		14.138E-03
			106.40		12.802E-03
			109.40		11.836E-03
			112.40		10.631E-03
			115.40		9.9423E-03
			118.40		8.9625E-03
			121.40		8.1097E-03
			124.40		7.8927E-03
			127.40		7.2897E-03
			130.40		7.0600E-03
			133.40		6.1663E-03
			136.40		5.4000E-03
			139.40		4.9201E-03
			142.40		5.0297E-03
			145.40		4.8203E-03
			148.40		4.9433E-03
			151.40		4.1998E-03
			154.40		4.7114E-03
			157.40		3.5846E-03
			160.40		2.8435E-03
			163.40		2.9564E-03
			166.40		3.1741E-03
			169.40		2.9228E-03
			172.40		2.8578E-03
		END_DATA
	END_SCAN  15
	BEGIN_SCAN  16
		TASK_NAME=MODE_INTERVAL
		PROGRAM=BeamAdjust 1.2
		MEAS_DATE=07-Oct-2010 13:57:52
		LINAC=A4
		MODALITY=X
		INPLANE_AXIS_DIR=GUN_TARGET
		CROSSPLANE_AXIS_DIR=LEFT_RIGHT
		DEPTH_AXIS_DIR=UP_DOWN
		ENERGY=6.00
		SSD=950.00
		WEDGE=None
		FIELD_INPLANE=100.00
		FIELD_CROSSPLANE=100.00
		FIELD_TYPE=RECTANGULAR
		GANTRY=0.00
		GANTRY_UPRIGHT_POSITION=0
		GANTRY_ROTATION=CW
		COLL_ANGLE=90.00
		COLL_OFFSET_INPLANE=0.00
		COLL_OFFSET_CROSSPLANE=0.00
		SCAN_DEVICE=STARCHECK
		ELECTROMETER=2D_ARRAY_INTERFACE
		DETECTOR=STARCHECK
		SCAN_CURVETYPE=INPLANE_PROFILE
		SCAN_DEPTH=0.00
		SCAN_OFFAXIS_CROSSPLANE=0.00
		SCAN_ANGLE=0.00
		SCAN_DIAGONAL=SECOND_DIAGONAL
		MEAS_PRESET=TIME_PRESET
		MEAS_TIME=10.000
		MEAS_UNIT=GY
		PRESSURE=1013.25
		TEMPERATURE=20.00
		NORM_TEMPERATURE=20.00
		CORRECTION_FACTOR=1.0000
		CORRECTIONS=AIR_DENSITY_CORR;
		BEGIN_DATA
			-172.40		2.7120E-03
			-169.40		3.0416E-03
			-166.40		3.1364E-03
			-163.40		3.1026E-03
			-160.40		3.7144E-03
			-157.40		3.6449E-03
			-154.40		4.0167E-03
			-151.40		4.3924E-03
			-148.40		4.7106E-03
			-145.40		5.1888E-03
			-142.40		5.2961E-03
			-139.40		5.1434E-03
			-136.40		5.4234E-03
			-133.40		6.5565E-03
			-130.40		6.7037E-03
			-127.40		7.3463E-03
			-124.40		8.3882E-03
			-121.40		8.6372E-03
			-118.40		9.0786E-03
			-115.40		9.8563E-03
			-112.40		10.330E-03
			-109.40		11.598E-03
			-106.40		12.819E-03
			-103.40		14.362E-03
			-100.40		15.709E-03
			-97.40		17.147E-03
			-94.40		18.277E-03
			-91.40		20.474E-03
			-88.40		22.937E-03
			-85.40		24.854E-03
			-82.40		28.926E-03
			-79.40		34.289E-03
			-76.40		42.045E-03
			-73.40		60.184E-03
			-70.40		120.35E-03
			-67.40		295.48E-03
			-64.40		485.90E-03
			-61.40		583.00E-03
			-58.40		619.08E-03
			-55.40		634.15E-03
			-52.40		646.62E-03
			-49.40		652.02E-03
			-46.40		655.74E-03
			-43.40		659.34E-03
			-40.40		660.93E-03
			-37.40		664.74E-03
			-34.40		664.38E-03
			-31.40		665.39E-03
			-28.40		667.54E-03
			-25.40		666.90E-03
			-22.40		664.59E-03
			-19.40		668.62E-03
			-16.40		669.59E-03
			-13.40		672.62E-03
			0.00		667.98E-03
			13.40		671.71E-03
			16.40		668.70E-03
			19.40		664.71E-03
			22.40		662.35E-03
			25.40		662.11E-03
			28.40		661.19E-03
			31.40		659.84E-03
			34.40		657.15E-03
			37.40		656.27E-03
			40.40		654.82E-03
			43.40		653.02E-03
			46.40		651.21E-03
			49.40		647.03E-03
			52.40		638.98E-03
			55.40		630.99E-03
			58.40		620.80E-03
			61.40		594.72E-03
			64.40		529.00E-03
			67.40		386.16E-03
			70.40		194.05E-03
			73.40		82.928E-03
			76.40		50.267E-03
			79.40		38.171E-03
			82.40		32.779E-03
			85.40		28.629E-03
			88.40		25.261E-03
			91.40		22.827E-03
			94.40		20.354E-03
			97.40		18.436E-03
			100.40		16.070E-03
			103.40		14.749E-03
			106.40		13.685E-03
			109.40		12.498E-03
			112.40		11.655E-03
			115.40		10.884E-03
			118.40		9.7851E-03
			121.40		8.7331E-03
			124.40		8.0795E-03
			127.40		8.2525E-03
			130.40		7.5846E-03
			133.40		6.7477E-03
			136.40		6.0511E-03
			139.40		6.4577E-03
			142.40		5.7595E-03
			145.40		5.6114E-03
			148.40		4.7659E-03
			151.40		4.3969E-03
			154.40		4.1490E-03
			157.40		4.1658E-03
			160.40		3.8431E-03
			163.40		4.0897E-03
			166.40		3.5081E-03
			169.40		3.5919E-03
			172.40		2.4309E-03
		END_DATA
	END_SCAN  16
END_SCAN_DATA
