BEGIN_SCAN_DATA
	FORMAT=CC-Export V1.9                  
	FILE_CREATION_DATE=07-Oct-2010 13:58:20
	LAST_MODIFIED=07-Oct-2010 13:58:20
	BEGIN_SCAN  1
		TASK_NAME=MODE_INTERVAL
		PROGRAM=BeamAdjust 1.2
		MEAS_DATE=07-Oct-2010 13:58:20
		LINAC=A4
		MODALITY=X
		INPLANE_AXIS_DIR=TARGET_GUN
		CROSSPLANE_AXIS_DIR=LEFT_RIGHT
		DEPTH_AXIS_DIR=UP_DOWN
		ENERGY=6.00
		SSD=950.00
		WEDGE=None
		FIELD_INPLANE=100.00
		FIELD_CROSSPLANE=100.00
		FIELD_TYPE=RECTANGULAR
		GANTRY=0.00
		GANTRY_UPRIGHT_POSITION=0
		GANTRY_ROTATION=CW
		COLL_ANGLE=90.00
		COLL_OFFSET_INPLANE=0.00
		COLL_OFFSET_CROSSPLANE=0.00
		SCAN_DEVICE=STARCHECK
		ELECTROMETER=2D_ARRAY_INTERFACE
		DETECTOR=STARCHECK
		SCAN_CURVETYPE=CROSSPLANE_PROFILE
		SCAN_DEPTH=0.00
		SCAN_OFFAXIS_INPLANE=-130.00
		SCAN_ANGLE=0.00
		SCAN_DIAGONAL=NOT_DIAGONAL
		MEAS_PRESET=TIME_PRESET
		MEAS_TIME=10.000
		MEAS_UNIT=GY
		PRESSURE=1013.25
		TEMPERATURE=20.00
		NORM_TEMPERATURE=20.00
		CORRECTION_FACTOR=1.0000
		CORRECTIONS=AIR_DENSITY_CORR;
		BEGIN_DATA
			-130.00		2.7792E-03
			-80.00		4.6019E-03
			-40.00		7.2938E-03
			40.00		6.7807E-03
			80.00		3.6415E-03
			130.00		1.8506E-03
		END_DATA
	END_SCAN  1
	BEGIN_SCAN  2
		TASK_NAME=MODE_INTERVAL
		PROGRAM=BeamAdjust 1.2
		MEAS_DATE=07-Oct-2010 13:58:20
		LINAC=A4
		MODALITY=X
		INPLANE_AXIS_DIR=TARGET_GUN
		CROSSPLANE_AXIS_DIR=LEFT_RIGHT
		DEPTH_AXIS_DIR=UP_DOWN
		ENERGY=6.00
		SSD=950.00
		WEDGE=None
		FIELD_INPLANE=100.00
		FIELD_CROSSPLANE=100.00
		FIELD_TYPE=RECTANGULAR
		GANTRY=0.00
		GANTRY_UPRIGHT_POSITION=0
		GANTRY_ROTATION=CW
		COLL_ANGLE=90.00
		COLL_OFFSET_INPLANE=0.00
		COLL_OFFSET_CROSSPLANE=0.00
		SCAN_DEVICE=STARCHECK
		ELECTROMETER=2D_ARRAY_INTERFACE
		DETECTOR=STARCHECK
		SCAN_CURVETYPE=CROSSPLANE_PROFILE
		SCAN_DEPTH=0.00
		SCAN_OFFAXIS_INPLANE=-100.00
		SCAN_ANGLE=0.00
		SCAN_DIAGONAL=NOT_DIAGONAL
		MEAS_PRESET=TIME_PRESET
		MEAS_TIME=10.000
		MEAS_UNIT=GY
		PRESSURE=1013.25
		TEMPERATURE=20.00
		NORM_TEMPERATURE=20.00
		CORRECTION_FACTOR=1.0000
		CORRECTIONS=AIR_DENSITY_CORR;
		BEGIN_DATA
			-60.00		10.867E-03
			-30.00		14.416E-03
			30.00		14.800E-03
			60.00		9.7016E-03
		END_DATA
	END_SCAN  2
	BEGIN_SCAN  3
		TASK_NAME=MODE_INTERVAL
		PROGRAM=BeamAdjust 1.2
		MEAS_DATE=07-Oct-2010 13:58:20
		LINAC=A4
		MODALITY=X
		INPLANE_AXIS_DIR=TARGET_GUN
		CROSSPLANE_AXIS_DIR=LEFT_RIGHT
		DEPTH_AXIS_DIR=UP_DOWN
		ENERGY=6.00
		SSD=950.00
		WEDGE=None
		FIELD_INPLANE=100.00
		FIELD_CROSSPLANE=100.00
		FIELD_TYPE=RECTANGULAR
		GANTRY=0.00
		GANTRY_UPRIGHT_POSITION=0
		GANTRY_ROTATION=CW
		COLL_ANGLE=90.00
		COLL_OFFSET_INPLANE=0.00
		COLL_OFFSET_CROSSPLANE=0.00
		SCAN_DEVICE=STARCHECK
		ELECTROMETER=2D_ARRAY_INTERFACE
		DETECTOR=STARCHECK
		SCAN_CURVETYPE=CROSSPLANE_PROFILE
		SCAN_DEPTH=0.00
		SCAN_OFFAXIS_INPLANE=-50.00
		SCAN_ANGLE=0.00
		SCAN_DIAGONAL=NOT_DIAGONAL
		MEAS_PRESET=TIME_PRESET
		MEAS_TIME=10.000
		MEAS_UNIT=GY
		PRESSURE=1013.25
		TEMPERATURE=20.00
		NORM_TEMPERATURE=20.00
		CORRECTION_FACTOR=1.0000
		CORRECTIONS=AIR_DENSITY_CORR;
		BEGIN_DATA
			-30.00		390.99E-03
			-15.00		360.31E-03
			15.00		385.12E-03
			30.00		383.19E-03
		END_DATA
	END_SCAN  3
	BEGIN_SCAN  4
		TASK_NAME=MODE_INTERVAL
		PROGRAM=BeamAdjust 1.2
		MEAS_DATE=07-Oct-2010 13:58:20
		LINAC=A4
		MODALITY=X
		INPLANE_AXIS_DIR=TARGET_GUN
		CROSSPLANE_AXIS_DIR=LEFT_RIGHT
		DEPTH_AXIS_DIR=UP_DOWN
		ENERGY=6.00
		SSD=950.00
		WEDGE=None
		FIELD_INPLANE=100.00
		FIELD_CROSSPLANE=100.00
		FIELD_TYPE=RECTANGULAR
		GANTRY=0.00
		GANTRY_UPRIGHT_POSITION=0
		GANTRY_ROTATION=CW
		COLL_ANGLE=90.00
		COLL_OFFSET_INPLANE=0.00
		COLL_OFFSET_CROSSPLANE=0.00
		SCAN_DEVICE=STARCHECK
		ELECTROMETER=2D_ARRAY_INTERFACE
		DETECTOR=STARCHECK
		SCAN_CURVETYPE=CROSSPLANE_PROFILE
		SCAN_DEPTH=0.00
		SCAN_OFFAXIS_INPLANE=0.00
		SCAN_ANGLE=0.00
		SCAN_DIAGONAL=NOT_DIAGONAL
		MEAS_PRESET=TIME_PRESET
		MEAS_TIME=10.000
		MEAS_UNIT=GY
		PRESSURE=1013.25
		TEMPERATURE=20.00
		NORM_TEMPERATURE=20.00
		CORRECTION_FACTOR=1.0000
		CORRECTIONS=AIR_DENSITY_CORR;
		BEGIN_DATA
			-126.00		7.1587E-03
			-123.00		7.9445E-03
			-120.00		8.2910E-03
			-117.00		9.0567E-03
			-114.00		10.059E-03
			-111.00		10.110E-03
			-108.00		11.061E-03
			-105.00		11.715E-03
			-102.00		12.747E-03
			-99.00		13.684E-03
			-96.00		14.826E-03
			-93.00		16.390E-03
			-90.00		17.751E-03
			-87.00		19.230E-03
			-84.00		21.761E-03
			-81.00		23.631E-03
			-78.00		25.741E-03
			-75.00		29.332E-03
			-72.00		32.758E-03
			-69.00		37.218E-03
			-66.00		43.209E-03
			-63.00		50.885E-03
			-60.00		64.213E-03
			-57.00		92.039E-03
			-54.00		182.78E-03
			-51.00		472.79E-03
			-48.00		603.35E-03
			-45.00		631.10E-03
			-42.00		642.91E-03
			-39.00		652.62E-03
			-36.00		656.93E-03
			-33.00		657.21E-03
			-30.00		658.36E-03
			-27.00		660.53E-03
			-24.00		662.90E-03
			-21.00		663.09E-03
			-18.00		669.27E-03
			-15.00		668.89E-03
			-12.00		667.57E-03
			-9.00		669.54E-03
			-6.00		668.46E-03
			0.00		668.27E-03
			6.00		672.06E-03
			9.00		670.86E-03
			12.00		667.83E-03
			15.00		666.46E-03
			18.00		666.41E-03
			21.00		664.47E-03
			24.00		660.82E-03
			27.00		664.90E-03
			30.00		662.63E-03
			33.00		659.42E-03
			36.00		654.52E-03
			39.00		646.24E-03
			42.00		628.47E-03
			45.00		579.92E-03
			48.00		357.93E-03
			51.00		130.26E-03
			54.00		77.867E-03
			57.00		58.553E-03
			60.00		47.978E-03
			63.00		40.570E-03
			66.00		34.782E-03
			69.00		31.078E-03
			72.00		28.183E-03
			75.00		24.850E-03
			78.00		22.387E-03
			81.00		20.515E-03
			84.00		18.808E-03
			87.00		16.668E-03
			90.00		16.456E-03
			93.00		14.922E-03
			96.00		12.799E-03
			99.00		12.178E-03
			102.00		11.967E-03
			105.00		10.778E-03
			108.00		9.8568E-03
			111.00		9.0923E-03
			114.00		8.7557E-03
			117.00		7.8010E-03
			120.00		7.0378E-03
			123.00		6.8833E-03
			126.00		7.0709E-03
		END_DATA
	END_SCAN  4
	BEGIN_SCAN  5
		TASK_NAME=MODE_INTERVAL
		PROGRAM=BeamAdjust 1.2
		MEAS_DATE=07-Oct-2010 13:58:20
		LINAC=A4
		MODALITY=X
		INPLANE_AXIS_DIR=TARGET_GUN
		CROSSPLANE_AXIS_DIR=LEFT_RIGHT
		DEPTH_AXIS_DIR=UP_DOWN
		ENERGY=6.00
		SSD=950.00
		WEDGE=None
		FIELD_INPLANE=100.00
		FIELD_CROSSPLANE=100.00
		FIELD_TYPE=RECTANGULAR
		GANTRY=0.00
		GANTRY_UPRIGHT_POSITION=0
		GANTRY_ROTATION=CW
		COLL_ANGLE=90.00
		COLL_OFFSET_INPLANE=0.00
		COLL_OFFSET_CROSSPLANE=0.00
		SCAN_DEVICE=STARCHECK
		ELECTROMETER=2D_ARRAY_INTERFACE
		DETECTOR=STARCHECK
		SCAN_CURVETYPE=CROSSPLANE_PROFILE
		SCAN_DEPTH=0.00
		SCAN_OFFAXIS_INPLANE=50.00
		SCAN_ANGLE=0.00
		SCAN_DIAGONAL=NOT_DIAGONAL
		MEAS_PRESET=TIME_PRESET
		MEAS_TIME=10.000
		MEAS_UNIT=GY
		PRESSURE=1013.25
		TEMPERATURE=20.00
		NORM_TEMPERATURE=20.00
		CORRECTION_FACTOR=1.0000
		CORRECTIONS=AIR_DENSITY_CORR;
		BEGIN_DATA
			-30.00		270.70E-03
			-15.00		287.50E-03
			15.00		258.61E-03
			30.00		255.43E-03
		END_DATA
	END_SCAN  5
	BEGIN_SCAN  6
		TASK_NAME=MODE_INTERVAL
		PROGRAM=BeamAdjust 1.2
		MEAS_DATE=07-Oct-2010 13:58:20
		LINAC=A4
		MODALITY=X
		INPLANE_AXIS_DIR=TARGET_GUN
		CROSSPLANE_AXIS_DIR=LEFT_RIGHT
		DEPTH_AXIS_DIR=UP_DOWN
		ENERGY=6.00
		SSD=950.00
		WEDGE=None
		FIELD_INPLANE=100.00
		FIELD_CROSSPLANE=100.00
		FIELD_TYPE=RECTANGULAR
		GANTRY=0.00
		GANTRY_UPRIGHT_POSITION=0
		GANTRY_ROTATION=CW
		COLL_ANGLE=90.00
		COLL_OFFSET_INPLANE=0.00
		COLL_OFFSET_CROSSPLANE=0.00
		SCAN_DEVICE=STARCHECK
		ELECTROMETER=2D_ARRAY_INTERFACE
		DETECTOR=STARCHECK
		SCAN_CURVETYPE=CROSSPLANE_PROFILE
		SCAN_DEPTH=0.00
		SCAN_OFFAXIS_INPLANE=100.00
		SCAN_ANGLE=0.00
		SCAN_DIAGONAL=NOT_DIAGONAL
		MEAS_PRESET=TIME_PRESET
		MEAS_TIME=10.000
		MEAS_UNIT=GY
		PRESSURE=1013.25
		TEMPERATURE=20.00
		NORM_TEMPERATURE=20.00
		CORRECTION_FACTOR=1.0000
		CORRECTIONS=AIR_DENSITY_CORR;
		BEGIN_DATA
			-60.00		10.609E-03
			-30.00		15.142E-03
			30.00		14.890E-03
			60.00		8.9135E-03
		END_DATA
	END_SCAN  6
	BEGIN_SCAN  7
		TASK_NAME=MODE_INTERVAL
		PROGRAM=BeamAdjust 1.2
		MEAS_DATE=07-Oct-2010 13:58:20
		LINAC=A4
		MODALITY=X
		INPLANE_AXIS_DIR=TARGET_GUN
		CROSSPLANE_AXIS_DIR=LEFT_RIGHT
		DEPTH_AXIS_DIR=UP_DOWN
		ENERGY=6.00
		SSD=950.00
		WEDGE=None
		FIELD_INPLANE=100.00
		FIELD_CROSSPLANE=100.00
		FIELD_TYPE=RECTANGULAR
		GANTRY=0.00
		GANTRY_UPRIGHT_POSITION=0
		GANTRY_ROTATION=CW
		COLL_ANGLE=90.00
		COLL_OFFSET_INPLANE=0.00
		COLL_OFFSET_CROSSPLANE=0.00
		SCAN_DEVICE=STARCHECK
		ELECTROMETER=2D_ARRAY_INTERFACE
		DETECTOR=STARCHECK
		SCAN_CURVETYPE=CROSSPLANE_PROFILE
		SCAN_DEPTH=0.00
		SCAN_OFFAXIS_INPLANE=130.00
		SCAN_ANGLE=0.00
		SCAN_DIAGONAL=NOT_DIAGONAL
		MEAS_PRESET=TIME_PRESET
		MEAS_TIME=10.000
		MEAS_UNIT=GY
		PRESSURE=1013.25
		TEMPERATURE=20.00
		NORM_TEMPERATURE=20.00
		CORRECTION_FACTOR=1.0000
		CORRECTIONS=AIR_DENSITY_CORR;
		BEGIN_DATA
			-130.00		2.4641E-03
			-80.00		4.5509E-03
			-40.00		7.9422E-03
			40.00		7.1123E-03
			80.00		4.5803E-03
			130.00		2.2101E-03
		END_DATA
	END_SCAN  7
	BEGIN_SCAN  8
		TASK_NAME=MODE_INTERVAL
		PROGRAM=BeamAdjust 1.2
		MEAS_DATE=07-Oct-2010 13:58:20
		LINAC=A4
		MODALITY=X
		INPLANE_AXIS_DIR=TARGET_GUN
		CROSSPLANE_AXIS_DIR=LEFT_RIGHT
		DEPTH_AXIS_DIR=UP_DOWN
		ENERGY=6.00
		SSD=950.00
		WEDGE=None
		FIELD_INPLANE=100.00
		FIELD_CROSSPLANE=100.00
		FIELD_TYPE=RECTANGULAR
		GANTRY=0.00
		GANTRY_UPRIGHT_POSITION=0
		GANTRY_ROTATION=CW
		COLL_ANGLE=90.00
		COLL_OFFSET_INPLANE=0.00
		COLL_OFFSET_CROSSPLANE=0.00
		SCAN_DEVICE=STARCHECK
		ELECTROMETER=2D_ARRAY_INTERFACE
		DETECTOR=STARCHECK
		SCAN_CURVETYPE=INPLANE_PROFILE
		SCAN_DEPTH=0.00
		SCAN_OFFAXIS_CROSSPLANE=-130.00
		SCAN_ANGLE=0.00
		SCAN_DIAGONAL=NOT_DIAGONAL
		MEAS_PRESET=TIME_PRESET
		MEAS_TIME=10.000
		MEAS_UNIT=GY
		PRESSURE=1013.25
		TEMPERATURE=20.00
		NORM_TEMPERATURE=20.00
		CORRECTION_FACTOR=1.0000
		CORRECTIONS=AIR_DENSITY_CORR;
		BEGIN_DATA
			-130.00		2.7792E-03
			-125.00		2.9636E-03
			-120.00		3.0415E-03
			-115.00		3.4500E-03
			-110.00		3.4092E-03
			-105.00		3.8628E-03
			-100.00		4.0153E-03
			-95.00		4.7392E-03
			-90.00		4.8746E-03
			-85.00		4.5007E-03
			-80.00		4.4878E-03
			-75.00		5.1914E-03
			-70.00		5.1847E-03
			-65.00		5.6411E-03
			-60.00		5.5151E-03
			-55.00		6.4777E-03
			-50.00		4.6732E-03
			-45.00		5.0411E-03
			-40.00		5.1516E-03
			-35.00		5.8552E-03
			-30.00		5.5589E-03
			-25.00		5.7289E-03
			-20.00		5.7521E-03
			-15.00		5.1669E-03
			-10.00		5.4824E-03
			-5.00		6.6490E-03
			0.00		6.3615E-03
			5.00		7.0924E-03
			10.00		6.1737E-03
			15.00		6.1488E-03
			20.00		6.1982E-03
			25.00		5.6433E-03
			30.00		6.0948E-03
			35.00		5.8652E-03
			40.00		5.1976E-03
			45.00		5.3134E-03
			50.00		5.4698E-03
			55.00		4.8421E-03
			60.00		5.0630E-03
			65.00		4.2858E-03
			70.00		4.3178E-03
			75.00		4.7343E-03
			80.00		3.9875E-03
			85.00		3.9366E-03
			90.00		3.6362E-03
			95.00		3.7516E-03
			100.00		3.3820E-03
			105.00		2.7850E-03
			110.00		2.8393E-03
			115.00		2.6114E-03
			120.00		2.9438E-03
			125.00		2.7937E-03
			130.00		2.4641E-03
		END_DATA
	END_SCAN  8
	BEGIN_SCAN  9
		TASK_NAME=MODE_INTERVAL
		PROGRAM=BeamAdjust 1.2
		MEAS_DATE=07-Oct-2010 13:58:20
		LINAC=A4
		MODALITY=X
		INPLANE_AXIS_DIR=TARGET_GUN
		CROSSPLANE_AXIS_DIR=LEFT_RIGHT
		DEPTH_AXIS_DIR=UP_DOWN
		ENERGY=6.00
		SSD=950.00
		WEDGE=None
		FIELD_INPLANE=100.00
		FIELD_CROSSPLANE=100.00
		FIELD_TYPE=RECTANGULAR
		GANTRY=0.00
		GANTRY_UPRIGHT_POSITION=0
		GANTRY_ROTATION=CW
		COLL_ANGLE=90.00
		COLL_OFFSET_INPLANE=0.00
		COLL_OFFSET_CROSSPLANE=0.00
		SCAN_DEVICE=STARCHECK
		ELECTROMETER=2D_ARRAY_INTERFACE
		DETECTOR=STARCHECK
		SCAN_CURVETYPE=INPLANE_PROFILE
		SCAN_DEPTH=0.00
		SCAN_OFFAXIS_CROSSPLANE=-100.00
		SCAN_ANGLE=0.00
		SCAN_DIAGONAL=NOT_DIAGONAL
		MEAS_PRESET=TIME_PRESET
		MEAS_TIME=10.000
		MEAS_UNIT=GY
		PRESSURE=1013.25
		TEMPERATURE=20.00
		NORM_TEMPERATURE=20.00
		CORRECTION_FACTOR=1.0000
		CORRECTIONS=AIR_DENSITY_CORR;
		BEGIN_DATA
			-60.00		8.9473E-03
			-30.00		11.494E-03
			30.00		10.851E-03
			60.00		8.4214E-03
		END_DATA
	END_SCAN  9
	BEGIN_SCAN  10
		TASK_NAME=MODE_INTERVAL
		PROGRAM=BeamAdjust 1.2
		MEAS_DATE=07-Oct-2010 13:58:20
		LINAC=A4
		MODALITY=X
		INPLANE_AXIS_DIR=TARGET_GUN
		CROSSPLANE_AXIS_DIR=LEFT_RIGHT
		DEPTH_AXIS_DIR=UP_DOWN
		ENERGY=6.00
		SSD=950.00
		WEDGE=None
		FIELD_INPLANE=100.00
		FIELD_CROSSPLANE=100.00
		FIELD_TYPE=RECTANGULAR
		GANTRY=0.00
		GANTRY_UPRIGHT_POSITION=0
		GANTRY_ROTATION=CW
		COLL_ANGLE=90.00
		COLL_OFFSET_INPLANE=0.00
		COLL_OFFSET_CROSSPLANE=0.00
		SCAN_DEVICE=STARCHECK
		ELECTROMETER=2D_ARRAY_INTERFACE
		DETECTOR=STARCHECK
		SCAN_CURVETYPE=INPLANE_PROFILE
		SCAN_DEPTH=0.00
		SCAN_OFFAXIS_CROSSPLANE=-50.00
		SCAN_ANGLE=0.00
		SCAN_DIAGONAL=NOT_DIAGONAL
		MEAS_PRESET=TIME_PRESET
		MEAS_TIME=10.000
		MEAS_UNIT=GY
		PRESSURE=1013.25
		TEMPERATURE=20.00
		NORM_TEMPERATURE=20.00
		CORRECTION_FACTOR=1.0000
		CORRECTIONS=AIR_DENSITY_CORR;
		BEGIN_DATA
			-30.00		536.40E-03
			-15.00		533.88E-03
			15.00		526.41E-03
			30.00		516.58E-03
		END_DATA
	END_SCAN  10
	BEGIN_SCAN  11
		TASK_NAME=MODE_INTERVAL
		PROGRAM=BeamAdjust 1.2
		MEAS_DATE=07-Oct-2010 13:58:20
		LINAC=A4
		MODALITY=X
		INPLANE_AXIS_DIR=TARGET_GUN
		CROSSPLANE_AXIS_DIR=LEFT_RIGHT
		DEPTH_AXIS_DIR=UP_DOWN
		ENERGY=6.00
		SSD=950.00
		WEDGE=None
		FIELD_INPLANE=100.00
		FIELD_CROSSPLANE=100.00
		FIELD_TYPE=RECTANGULAR
		GANTRY=0.00
		GANTRY_UPRIGHT_POSITION=0
		GANTRY_ROTATION=CW
		COLL_ANGLE=90.00
		COLL_OFFSET_INPLANE=0.00
		COLL_OFFSET_CROSSPLANE=0.00
		SCAN_DEVICE=STARCHECK
		ELECTROMETER=2D_ARRAY_INTERFACE
		DETECTOR=STARCHECK
		SCAN_CURVETYPE=INPLANE_PROFILE
		SCAN_DEPTH=0.00
		SCAN_OFFAXIS_CROSSPLANE=0.00
		SCAN_ANGLE=0.00
		SCAN_DIAGONAL=NOT_DIAGONAL
		MEAS_PRESET=TIME_PRESET
		MEAS_TIME=10.000
		MEAS_UNIT=GY
		PRESSURE=1013.25
		TEMPERATURE=20.00
		NORM_TEMPERATURE=20.00
		CORRECTION_FACTOR=1.0000
		CORRECTIONS=AIR_DENSITY_CORR;
		BEGIN_DATA
			-126.00		9.3048E-03
			-123.00		9.2235E-03
			-120.00		10.712E-03
			-117.00		11.624E-03
			-114.00		12.372E-03
			-111.00		12.720E-03
			-108.00		13.741E-03
			-105.00		14.572E-03
			-102.00		16.377E-03
			-99.00		16.905E-03
			-96.00		18.414E-03
			-93.00		20.391E-03
			-90.00		21.911E-03
			-87.00		23.667E-03
			-84.00		25.583E-03
			-81.00		28.225E-03
			-78.00		30.932E-03
			-75.00		33.305E-03
			-72.00		37.256E-03
			-69.00		40.755E-03
			-66.00		46.200E-03
			-63.00		52.459E-03
			-60.00		62.829E-03
			-57.00		82.490E-03
			-54.00		132.40E-03
			-51.00		300.62E-03
			-48.00		554.62E-03
			-45.00		623.23E-03
			-42.00		643.30E-03
			-39.00		652.46E-03
			-36.00		658.01E-03
			-33.00		661.30E-03
			-30.00		665.85E-03
			-27.00		666.73E-03
			-24.00		665.85E-03
			-21.00		664.80E-03
			-18.00		671.28E-03
			-15.00		669.88E-03
			-12.00		671.09E-03
			-9.00		671.38E-03
			-6.00		668.94E-03
			0.00		668.27E-03
			6.00		672.82E-03
			9.00		672.03E-03
			12.00		671.15E-03
			15.00		668.80E-03
			18.00		664.66E-03
			21.00		665.17E-03
			24.00		661.32E-03
			27.00		662.74E-03
			30.00		658.49E-03
			33.00		656.31E-03
			36.00		653.82E-03
			39.00		642.62E-03
			42.00		631.23E-03
			45.00		597.81E-03
			48.00		436.12E-03
			51.00		189.54E-03
			54.00		98.686E-03
			57.00		69.826E-03
			60.00		56.642E-03
			63.00		49.491E-03
			66.00		43.774E-03
			69.00		38.790E-03
			72.00		35.004E-03
			75.00		31.547E-03
			78.00		28.005E-03
			81.00		26.130E-03
			84.00		24.546E-03
			87.00		22.642E-03
			90.00		21.103E-03
			93.00		19.409E-03
			96.00		18.180E-03
			99.00		16.434E-03
			102.00		14.955E-03
			105.00		14.607E-03
			108.00		13.614E-03
			111.00		12.220E-03
			114.00		11.588E-03
			117.00		10.785E-03
			120.00		10.169E-03
			123.00		9.6471E-03
			126.00		8.6888E-03
		END_DATA
	END_SCAN  11
	BEGIN_SCAN  12
		TASK_NAME=MODE_INTERVAL
		PROGRAM=BeamAdjust 1.2
		MEAS_DATE=07-Oct-2010 13:58:20
		LINAC=A4
		MODALITY=X
		INPLANE_AXIS_DIR=TARGET_GUN
		CROSSPLANE_AXIS_DIR=LEFT_RIGHT
		DEPTH_AXIS_DIR=UP_DOWN
		ENERGY=6.00
		SSD=950.00
		WEDGE=None
		FIELD_INPLANE=100.00
		FIELD_CROSSPLANE=100.00
		FIELD_TYPE=RECTANGULAR
		GANTRY=0.00
		GANTRY_UPRIGHT_POSITION=0
		GANTRY_ROTATION=CW
		COLL_ANGLE=90.00
		COLL_OFFSET_INPLANE=0.00
		COLL_OFFSET_CROSSPLANE=0.00
		SCAN_DEVICE=STARCHECK
		ELECTROMETER=2D_ARRAY_INTERFACE
		DETECTOR=STARCHECK
		SCAN_CURVETYPE=INPLANE_PROFILE
		SCAN_DEPTH=0.00
		SCAN_OFFAXIS_CROSSPLANE=50.00
		SCAN_ANGLE=0.00
		SCAN_DIAGONAL=NOT_DIAGONAL
		MEAS_PRESET=TIME_PRESET
		MEAS_TIME=10.000
		MEAS_UNIT=GY
		PRESSURE=1013.25
		TEMPERATURE=20.00
		NORM_TEMPERATURE=20.00
		CORRECTION_FACTOR=1.0000
		CORRECTIONS=AIR_DENSITY_CORR;
		BEGIN_DATA
			-30.00		180.99E-03
			-15.00		189.14E-03
			15.00		196.49E-03
			30.00		196.55E-03
		END_DATA
	END_SCAN  12
	BEGIN_SCAN  13
		TASK_NAME=MODE_INTERVAL
		PROGRAM=BeamAdjust 1.2
		MEAS_DATE=07-Oct-2010 13:58:20
		LINAC=A4
		MODALITY=X
		INPLANE_AXIS_DIR=TARGET_GUN
		CROSSPLANE_AXIS_DIR=LEFT_RIGHT
		DEPTH_AXIS_DIR=UP_DOWN
		ENERGY=6.00
		SSD=950.00
		WEDGE=None
		FIELD_INPLANE=100.00
		FIELD_CROSSPLANE=100.00
		FIELD_TYPE=RECTANGULAR
		GANTRY=0.00
		GANTRY_UPRIGHT_POSITION=0
		GANTRY_ROTATION=CW
		COLL_ANGLE=90.00
		COLL_OFFSET_INPLANE=0.00
		COLL_OFFSET_CROSSPLANE=0.00
		SCAN_DEVICE=STARCHECK
		ELECTROMETER=2D_ARRAY_INTERFACE
		DETECTOR=STARCHECK
		SCAN_CURVETYPE=INPLANE_PROFILE
		SCAN_DEPTH=0.00
		SCAN_OFFAXIS_CROSSPLANE=100.00
		SCAN_ANGLE=0.00
		SCAN_DIAGONAL=NOT_DIAGONAL
		MEAS_PRESET=TIME_PRESET
		MEAS_TIME=10.000
		MEAS_UNIT=GY
		PRESSURE=1013.25
		TEMPERATURE=20.00
		NORM_TEMPERATURE=20.00
		CORRECTION_FACTOR=1.0000
		CORRECTIONS=AIR_DENSITY_CORR;
		BEGIN_DATA
			-60.00		7.9115E-03
			-30.00		9.7439E-03
			30.00		10.060E-03
			60.00		7.2579E-03
		END_DATA
	END_SCAN  13
	BEGIN_SCAN  14
		TASK_NAME=MODE_INTERVAL
		PROGRAM=BeamAdjust 1.2
		MEAS_DATE=07-Oct-2010 13:58:20
		LINAC=A4
		MODALITY=X
		INPLANE_AXIS_DIR=TARGET_GUN
		CROSSPLANE_AXIS_DIR=LEFT_RIGHT
		DEPTH_AXIS_DIR=UP_DOWN
		ENERGY=6.00
		SSD=950.00
		WEDGE=None
		FIELD_INPLANE=100.00
		FIELD_CROSSPLANE=100.00
		FIELD_TYPE=RECTANGULAR
		GANTRY=0.00
		GANTRY_UPRIGHT_POSITION=0
		GANTRY_ROTATION=CW
		COLL_ANGLE=90.00
		COLL_OFFSET_INPLANE=0.00
		COLL_OFFSET_CROSSPLANE=0.00
		SCAN_DEVICE=STARCHECK
		ELECTROMETER=2D_ARRAY_INTERFACE
		DETECTOR=STARCHECK
		SCAN_CURVETYPE=INPLANE_PROFILE
		SCAN_DEPTH=0.00
		SCAN_OFFAXIS_CROSSPLANE=130.00
		SCAN_ANGLE=0.00
		SCAN_DIAGONAL=NOT_DIAGONAL
		MEAS_PRESET=TIME_PRESET
		MEAS_TIME=10.000
		MEAS_UNIT=GY
		PRESSURE=1013.25
		TEMPERATURE=20.00
		NORM_TEMPERATURE=20.00
		CORRECTION_FACTOR=1.0000
		CORRECTIONS=AIR_DENSITY_CORR;
		BEGIN_DATA
			-130.00		1.8506E-03
			-125.00		3.2838E-03
			-120.00		2.2719E-03
			-115.00		2.5062E-03
			-110.00		2.8013E-03
			-105.00		2.9516E-03
			-100.00		3.1071E-03
			-95.00		2.8102E-03
			-90.00		2.9961E-03
			-85.00		3.3670E-03
			-80.00		3.3392E-03
			-75.00		3.9188E-03
			-70.00		4.0133E-03
			-65.00		3.5008E-03
			-60.00		4.8332E-03
			-55.00		5.0100E-03
			-50.00		3.9681E-03
			-45.00		4.5984E-03
			-40.00		5.1801E-03
			-35.00		4.8824E-03
			-30.00		5.0870E-03
			-25.00		5.2148E-03
			-20.00		5.6028E-03
			-15.00		5.1642E-03
			-10.00		4.5838E-03
			-5.00		5.8613E-03
			0.00		5.9244E-03
			5.00		5.3822E-03
			10.00		5.9332E-03
			15.00		5.9723E-03
			20.00		5.0671E-03
			25.00		5.3294E-03
			30.00		4.8885E-03
			35.00		4.8201E-03
			40.00		5.1635E-03
			45.00		5.1804E-03
			50.00		4.9254E-03
			55.00		5.0922E-03
			60.00		4.4940E-03
			65.00		4.0242E-03
			70.00		3.7519E-03
			75.00		3.9815E-03
			80.00		4.1642E-03
			85.00		4.2925E-03
			90.00		3.2353E-03
			95.00		3.0401E-03
			100.00		3.5497E-03
			105.00		2.5921E-03
			110.00		2.6147E-03
			115.00		2.8802E-03
			120.00		2.7035E-03
			125.00		2.3007E-03
			130.00		2.2101E-03
		END_DATA
	END_SCAN  14
	BEGIN_SCAN  15
		TASK_NAME=MODE_INTERVAL
		PROGRAM=BeamAdjust 1.2
		MEAS_DATE=07-Oct-2010 13:58:20
		LINAC=A4
		MODALITY=X
		INPLANE_AXIS_DIR=TARGET_GUN
		CROSSPLANE_AXIS_DIR=LEFT_RIGHT
		DEPTH_AXIS_DIR=UP_DOWN
		ENERGY=6.00
		SSD=950.00
		WEDGE=None
		FIELD_INPLANE=100.00
		FIELD_CROSSPLANE=100.00
		FIELD_TYPE=RECTANGULAR
		GANTRY=0.00
		GANTRY_UPRIGHT_POSITION=0
		GANTRY_ROTATION=CW
		COLL_ANGLE=90.00
		COLL_OFFSET_INPLANE=0.00
		COLL_OFFSET_CROSSPLANE=0.00
		SCAN_DEVICE=STARCHECK
		ELECTROMETER=2D_ARRAY_INTERFACE
		DETECTOR=STARCHECK
		SCAN_CURVETYPE=INPLANE_PROFILE
		SCAN_DEPTH=0.00
		SCAN_OFFAXIS_CROSSPLANE=0.00
		SCAN_ANGLE=0.00
		SCAN_DIAGONAL=FIRST_DIAGONAL
		MEAS_PRESET=TIME_PRESET
		MEAS_TIME=10.000
		MEAS_UNIT=GY
		PRESSURE=1013.25
		TEMPERATURE=20.00
		NORM_TEMPERATURE=20.00
		CORRECTION_FACTOR=1.0000
		CORRECTIONS=AIR_DENSITY_CORR;
		BEGIN_DATA
			-172.40		2.4735E-03
			-169.40		3.3546E-03
			-166.40		4.1644E-03
			-163.40		3.7360E-03
			-160.40		3.9908E-03
			-157.40		4.5847E-03
			-154.40		4.4086E-03
			-151.40		4.0714E-03
			-148.40		5.0435E-03
			-145.40		5.3565E-03
			-142.40		5.7502E-03
			-139.40		6.1244E-03
			-136.40		6.3327E-03
			-133.40		7.3624E-03
			-130.40		7.3907E-03
			-127.40		7.8526E-03
			-124.40		8.5081E-03
			-121.40		9.3492E-03
			-118.40		10.169E-03
			-115.40		11.770E-03
			-112.40		12.094E-03
			-109.40		13.265E-03
			-106.40		14.317E-03
			-103.40		15.352E-03
			-100.40		16.844E-03
			-97.40		18.791E-03
			-94.40		21.022E-03
			-91.40		23.592E-03
			-88.40		26.544E-03
			-85.40		29.767E-03
			-82.40		35.362E-03
			-79.40		43.808E-03
			-76.40		62.226E-03
			-73.40		129.92E-03
			-70.40		309.47E-03
			-67.40		492.54E-03
			-64.40		581.45E-03
			-61.40		614.89E-03
			-58.40		629.86E-03
			-55.40		639.59E-03
			-52.40		645.80E-03
			-49.40		650.57E-03
			-46.40		652.62E-03
			-43.40		655.02E-03
			-40.40		657.91E-03
			-37.40		662.35E-03
			-34.40		661.59E-03
			-31.40		663.98E-03
			-28.40		662.23E-03
			-25.40		664.74E-03
			-22.40		665.26E-03
			-19.40		666.62E-03
			-16.40		669.77E-03
			-13.40		671.50E-03
			0.00		668.27E-03
			13.40		671.63E-03
			16.40		667.33E-03
			19.40		667.29E-03
			22.40		666.04E-03
			25.40		665.47E-03
			28.40		663.92E-03
			31.40		661.27E-03
			34.40		658.53E-03
			37.40		660.35E-03
			40.40		657.48E-03
			43.40		654.34E-03
			46.40		651.94E-03
			49.40		645.19E-03
			52.40		639.06E-03
			55.40		625.31E-03
			58.40		605.73E-03
			61.40		559.89E-03
			64.40		428.26E-03
			67.40		220.82E-03
			70.40		90.247E-03
			73.40		52.422E-03
			76.40		39.355E-03
			79.40		32.495E-03
			82.40		28.168E-03
			85.40		24.761E-03
			88.40		22.563E-03
			91.40		19.962E-03
			94.40		18.082E-03
			97.40		16.628E-03
			100.40		14.812E-03
			103.40		14.051E-03
			106.40		12.937E-03
			109.40		11.565E-03
			112.40		10.251E-03
			115.40		10.178E-03
			118.40		8.7984E-03
			121.40		7.9983E-03
			124.40		7.7577E-03
			127.40		7.4882E-03
			130.40		7.0925E-03
			133.40		6.1070E-03
			136.40		5.3127E-03
			139.40		4.9053E-03
			142.40		4.6690E-03
			145.40		4.6361E-03
			148.40		4.7761E-03
			151.40		4.0257E-03
			154.40		4.0584E-03
			157.40		4.2884E-03
			160.40		2.7708E-03
			163.40		2.6155E-03
			166.40		3.0194E-03
			169.40		2.7263E-03
			172.40		2.9862E-03
		END_DATA
	END_SCAN  15
	BEGIN_SCAN  16
		TASK_NAME=MODE_INTERVAL
		PROGRAM=BeamAdjust 1.2
		MEAS_DATE=07-Oct-2010 13:58:20
		LINAC=A4
		MODALITY=X
		INPLANE_AXIS_DIR=GUN_TARGET
		CROSSPLANE_AXIS_DIR=LEFT_RIGHT
		DEPTH_AXIS_DIR=UP_DOWN
		ENERGY=6.00
		SSD=950.00
		WEDGE=None
		FIELD_INPLANE=100.00
		FIELD_CROSSPLANE=100.00
		FIELD_TYPE=RECTANGULAR
		GANTRY=0.00
		GANTRY_UPRIGHT_POSITION=0
		GANTRY_ROTATION=CW
		COLL_ANGLE=90.00
		COLL_OFFSET_INPLANE=0.00
		COLL_OFFSET_CROSSPLANE=0.00
		SCAN_DEVICE=STARCHECK
		ELECTROMETER=2D_ARRAY_INTERFACE
		DETECTOR=STARCHECK
		SCAN_CURVETYPE=INPLANE_PROFILE
		SCAN_DEPTH=0.00
		SCAN_OFFAXIS_CROSSPLANE=0.00
		SCAN_ANGLE=0.00
		SCAN_DIAGONAL=SECOND_DIAGONAL
		MEAS_PRESET=TIME_PRESET
		MEAS_TIME=10.000
		MEAS_UNIT=GY
		PRESSURE=1013.25
		TEMPERATURE=20.00
		NORM_TEMPERATURE=20.00
		CORRECTION_FACTOR=1.0000
		CORRECTIONS=AIR_DENSITY_CORR;
		BEGIN_DATA
			-172.40		2.8949E-03
			-169.40		3.0906E-03
			-166.40		2.8906E-03
			-163.40		3.0966E-03
			-160.40		3.4647E-03
			-157.40		3.7950E-03
			-154.40		4.1457E-03
			-151.40		4.4117E-03
			-148.40		5.0498E-03
			-145.40		4.5589E-03
			-142.40		5.1852E-03
			-139.40		5.5751E-03
			-136.40		5.5331E-03
			-133.40		6.4027E-03
			-130.40		6.6963E-03
			-127.40		7.6021E-03
			-124.40		8.1561E-03
			-121.40		8.7071E-03
			-118.40		9.5245E-03
			-115.40		9.7258E-03
			-112.40		10.260E-03
			-109.40		11.699E-03
			-106.40		13.390E-03
			-103.40		13.769E-03
			-100.40		15.643E-03
			-97.40		17.006E-03
			-94.40		18.336E-03
			-91.40		20.183E-03
			-88.40		22.099E-03
			-85.40		24.955E-03
			-82.40		28.325E-03
			-79.40		33.571E-03
			-76.40		41.524E-03
			-73.40		57.992E-03
			-70.40		110.85E-03
			-67.40		276.24E-03
			-64.40		469.91E-03
			-61.40		576.05E-03
			-58.40		617.48E-03
			-55.40		633.68E-03
			-52.40		646.47E-03
			-49.40		651.76E-03
			-46.40		655.72E-03
			-43.40		659.35E-03
			-40.40		661.26E-03
			-37.40		665.14E-03
			-34.40		665.10E-03
			-31.40		665.71E-03
			-28.40		667.99E-03
			-25.40		667.42E-03
			-22.40		665.47E-03
			-19.40		668.26E-03
			-16.40		669.82E-03
			-13.40		673.08E-03
			0.00		668.27E-03
			13.40		672.57E-03
			16.40		669.48E-03
			19.40		665.83E-03
			22.40		663.16E-03
			25.40		662.67E-03
			28.40		661.77E-03
			31.40		660.53E-03
			34.40		657.73E-03
			37.40		657.27E-03
			40.40		656.20E-03
			43.40		653.74E-03
			46.40		651.90E-03
			49.40		647.91E-03
			52.40		640.01E-03
			55.40		632.14E-03
			58.40		622.30E-03
			61.40		596.52E-03
			64.40		532.17E-03
			67.40		393.68E-03
			70.40		204.93E-03
			73.40		87.014E-03
			76.40		51.537E-03
			79.40		38.904E-03
			82.40		33.638E-03
			85.40		28.686E-03
			88.40		25.310E-03
			91.40		22.572E-03
			94.40		20.353E-03
			97.40		18.642E-03
			100.40		16.172E-03
			103.40		14.805E-03
			106.40		13.770E-03
			109.40		12.583E-03
			112.40		11.244E-03
			115.40		10.695E-03
			118.40		9.8151E-03
			121.40		8.9416E-03
			124.40		8.8872E-03
			127.40		7.4866E-03
			130.40		7.6802E-03
			133.40		6.4163E-03
			136.40		6.0197E-03
			139.40		6.3007E-03
			142.40		5.7192E-03
			145.40		5.6159E-03
			148.40		4.9734E-03
			151.40		4.4898E-03
			154.40		4.0064E-03
			157.40		4.2229E-03
			160.40		3.8551E-03
			163.40		3.9019E-03
			166.40		4.2856E-03
			169.40		2.9940E-03
			172.40		2.6528E-03
		END_DATA
	END_SCAN  16
END_SCAN_DATA
