BEGIN_SCAN_DATA
	FORMAT=CC-Export V1.9                  
	FILE_CREATION_DATE=07-Oct-2010 13:58:48
	LAST_MODIFIED=07-Oct-2010 13:58:48
	BEGIN_SCAN  1
		TASK_NAME=MODE_INTERVAL
		PROGRAM=BeamAdjust 1.2
		MEAS_DATE=07-Oct-2010 13:58:48
		LINAC=A4
		MODALITY=X
		INPLANE_AXIS_DIR=TARGET_GUN
		CROSSPLANE_AXIS_DIR=LEFT_RIGHT
		DEPTH_AXIS_DIR=UP_DOWN
		ENERGY=6.00
		SSD=950.00
		WEDGE=None
		FIELD_INPLANE=100.00
		FIELD_CROSSPLANE=100.00
		FIELD_TYPE=RECTANGULAR
		GANTRY=0.00
		GANTRY_UPRIGHT_POSITION=0
		GANTRY_ROTATION=CW
		COLL_ANGLE=90.00
		COLL_OFFSET_INPLANE=0.00
		COLL_OFFSET_CROSSPLANE=0.00
		SCAN_DEVICE=STARCHECK
		ELECTROMETER=2D_ARRAY_INTERFACE
		DETECTOR=STARCHECK
		SCAN_CURVETYPE=CROSSPLANE_PROFILE
		SCAN_DEPTH=0.00
		SCAN_OFFAXIS_INPLANE=-130.00
		SCAN_ANGLE=0.00
		SCAN_DIAGONAL=NOT_DIAGONAL
		MEAS_PRESET=TIME_PRESET
		MEAS_TIME=10.000
		MEAS_UNIT=GY
		PRESSURE=1013.25
		TEMPERATURE=20.00
		NORM_TEMPERATURE=20.00
		CORRECTION_FACTOR=1.0000
		CORRECTIONS=AIR_DENSITY_CORR;
		BEGIN_DATA
			-130.00		3.1595E-03
			-80.00		4.3883E-03
			-40.00		7.2264E-03
			40.00		6.8496E-03
			80.00		3.7459E-03
			130.00		2.1439E-03
		END_DATA
	END_SCAN  1
	BEGIN_SCAN  2
		TASK_NAME=MODE_INTERVAL
		PROGRAM=BeamAdjust 1.2
		MEAS_DATE=07-Oct-2010 13:58:48
		LINAC=A4
		MODALITY=X
		INPLANE_AXIS_DIR=TARGET_GUN
		CROSSPLANE_AXIS_DIR=LEFT_RIGHT
		DEPTH_AXIS_DIR=UP_DOWN
		ENERGY=6.00
		SSD=950.00
		WEDGE=None
		FIELD_INPLANE=100.00
		FIELD_CROSSPLANE=100.00
		FIELD_TYPE=RECTANGULAR
		GANTRY=0.00
		GANTRY_UPRIGHT_POSITION=0
		GANTRY_ROTATION=CW
		COLL_ANGLE=90.00
		COLL_OFFSET_INPLANE=0.00
		COLL_OFFSET_CROSSPLANE=0.00
		SCAN_DEVICE=STARCHECK
		ELECTROMETER=2D_ARRAY_INTERFACE
		DETECTOR=STARCHECK
		SCAN_CURVETYPE=CROSSPLANE_PROFILE
		SCAN_DEPTH=0.00
		SCAN_OFFAXIS_INPLANE=-100.00
		SCAN_ANGLE=0.00
		SCAN_DIAGONAL=NOT_DIAGONAL
		MEAS_PRESET=TIME_PRESET
		MEAS_TIME=10.000
		MEAS_UNIT=GY
		PRESSURE=1013.25
		TEMPERATURE=20.00
		NORM_TEMPERATURE=20.00
		CORRECTION_FACTOR=1.0000
		CORRECTIONS=AIR_DENSITY_CORR;
		BEGIN_DATA
			-60.00		10.948E-03
			-30.00		14.605E-03
			30.00		15.035E-03
			60.00		9.6586E-03
		END_DATA
	END_SCAN  2
	BEGIN_SCAN  3
		TASK_NAME=MODE_INTERVAL
		PROGRAM=BeamAdjust 1.2
		MEAS_DATE=07-Oct-2010 13:58:48
		LINAC=A4
		MODALITY=X
		INPLANE_AXIS_DIR=TARGET_GUN
		CROSSPLANE_AXIS_DIR=LEFT_RIGHT
		DEPTH_AXIS_DIR=UP_DOWN
		ENERGY=6.00
		SSD=950.00
		WEDGE=None
		FIELD_INPLANE=100.00
		FIELD_CROSSPLANE=100.00
		FIELD_TYPE=RECTANGULAR
		GANTRY=0.00
		GANTRY_UPRIGHT_POSITION=0
		GANTRY_ROTATION=CW
		COLL_ANGLE=90.00
		COLL_OFFSET_INPLANE=0.00
		COLL_OFFSET_CROSSPLANE=0.00
		SCAN_DEVICE=STARCHECK
		ELECTROMETER=2D_ARRAY_INTERFACE
		DETECTOR=STARCHECK
		SCAN_CURVETYPE=CROSSPLANE_PROFILE
		SCAN_DEPTH=0.00
		SCAN_OFFAXIS_INPLANE=-50.00
		SCAN_ANGLE=0.00
		SCAN_DIAGONAL=NOT_DIAGONAL
		MEAS_PRESET=TIME_PRESET
		MEAS_TIME=10.000
		MEAS_UNIT=GY
		PRESSURE=1013.25
		TEMPERATURE=20.00
		NORM_TEMPERATURE=20.00
		CORRECTION_FACTOR=1.0000
		CORRECTIONS=AIR_DENSITY_CORR;
		BEGIN_DATA
			-30.00		390.24E-03
			-15.00		361.69E-03
			15.00		385.78E-03
			30.00		381.63E-03
		END_DATA
	END_SCAN  3
	BEGIN_SCAN  4
		TASK_NAME=MODE_INTERVAL
		PROGRAM=BeamAdjust 1.2
		MEAS_DATE=07-Oct-2010 13:58:48
		LINAC=A4
		MODALITY=X
		INPLANE_AXIS_DIR=TARGET_GUN
		CROSSPLANE_AXIS_DIR=LEFT_RIGHT
		DEPTH_AXIS_DIR=UP_DOWN
		ENERGY=6.00
		SSD=950.00
		WEDGE=None
		FIELD_INPLANE=100.00
		FIELD_CROSSPLANE=100.00
		FIELD_TYPE=RECTANGULAR
		GANTRY=0.00
		GANTRY_UPRIGHT_POSITION=0
		GANTRY_ROTATION=CW
		COLL_ANGLE=90.00
		COLL_OFFSET_INPLANE=0.00
		COLL_OFFSET_CROSSPLANE=0.00
		SCAN_DEVICE=STARCHECK
		ELECTROMETER=2D_ARRAY_INTERFACE
		DETECTOR=STARCHECK
		SCAN_CURVETYPE=CROSSPLANE_PROFILE
		SCAN_DEPTH=0.00
		SCAN_OFFAXIS_INPLANE=0.00
		SCAN_ANGLE=0.00
		SCAN_DIAGONAL=NOT_DIAGONAL
		MEAS_PRESET=TIME_PRESET
		MEAS_TIME=10.000
		MEAS_UNIT=GY
		PRESSURE=1013.25
		TEMPERATURE=20.00
		NORM_TEMPERATURE=20.00
		CORRECTION_FACTOR=1.0000
		CORRECTIONS=AIR_DENSITY_CORR;
		BEGIN_DATA
			-126.00		7.0334E-03
			-123.00		8.0461E-03
			-120.00		8.4352E-03
			-117.00		9.2405E-03
			-114.00		9.6893E-03
			-111.00		10.890E-03
			-108.00		10.919E-03
			-105.00		11.633E-03
			-102.00		12.671E-03
			-99.00		13.722E-03
			-96.00		15.057E-03
			-93.00		16.463E-03
			-90.00		17.978E-03
			-87.00		19.615E-03
			-84.00		21.970E-03
			-81.00		23.669E-03
			-78.00		26.137E-03
			-75.00		29.496E-03
			-72.00		32.635E-03
			-69.00		37.903E-03
			-66.00		44.125E-03
			-63.00		52.021E-03
			-60.00		66.322E-03
			-57.00		97.121E-03
			-54.00		204.42E-03
			-51.00		499.26E-03
			-48.00		608.63E-03
			-45.00		632.82E-03
			-42.00		643.60E-03
			-39.00		653.09E-03
			-36.00		657.84E-03
			-33.00		657.56E-03
			-30.00		658.73E-03
			-27.00		661.64E-03
			-24.00		663.30E-03
			-21.00		663.27E-03
			-18.00		669.50E-03
			-15.00		669.00E-03
			-12.00		667.86E-03
			-9.00		669.81E-03
			-6.00		668.39E-03
			0.00		668.66E-03
			6.00		672.36E-03
			9.00		670.99E-03
			12.00		667.91E-03
			15.00		666.62E-03
			18.00		666.23E-03
			21.00		664.61E-03
			24.00		660.70E-03
			27.00		664.70E-03
			30.00		662.26E-03
			33.00		659.12E-03
			36.00		654.29E-03
			39.00		645.23E-03
			42.00		625.64E-03
			45.00		570.88E-03
			48.00		326.02E-03
			51.00		121.33E-03
			54.00		75.159E-03
			57.00		56.995E-03
			60.00		46.464E-03
			63.00		40.565E-03
			66.00		34.859E-03
			69.00		30.758E-03
			72.00		27.851E-03
			75.00		24.833E-03
			78.00		22.301E-03
			81.00		20.291E-03
			84.00		18.740E-03
			87.00		16.989E-03
			90.00		16.080E-03
			93.00		14.305E-03
			96.00		12.963E-03
			99.00		12.561E-03
			102.00		11.615E-03
			105.00		11.034E-03
			108.00		10.281E-03
			111.00		8.8687E-03
			114.00		8.3824E-03
			117.00		7.8794E-03
			120.00		7.0690E-03
			123.00		7.2465E-03
			126.00		7.0383E-03
		END_DATA
	END_SCAN  4
	BEGIN_SCAN  5
		TASK_NAME=MODE_INTERVAL
		PROGRAM=BeamAdjust 1.2
		MEAS_DATE=07-Oct-2010 13:58:48
		LINAC=A4
		MODALITY=X
		INPLANE_AXIS_DIR=TARGET_GUN
		CROSSPLANE_AXIS_DIR=LEFT_RIGHT
		DEPTH_AXIS_DIR=UP_DOWN
		ENERGY=6.00
		SSD=950.00
		WEDGE=None
		FIELD_INPLANE=100.00
		FIELD_CROSSPLANE=100.00
		FIELD_TYPE=RECTANGULAR
		GANTRY=0.00
		GANTRY_UPRIGHT_POSITION=0
		GANTRY_ROTATION=CW
		COLL_ANGLE=90.00
		COLL_OFFSET_INPLANE=0.00
		COLL_OFFSET_CROSSPLANE=0.00
		SCAN_DEVICE=STARCHECK
		ELECTROMETER=2D_ARRAY_INTERFACE
		DETECTOR=STARCHECK
		SCAN_CURVETYPE=CROSSPLANE_PROFILE
		SCAN_DEPTH=0.00
		SCAN_OFFAXIS_INPLANE=50.00
		SCAN_ANGLE=0.00
		SCAN_DIAGONAL=NOT_DIAGONAL
		MEAS_PRESET=TIME_PRESET
		MEAS_TIME=10.000
		MEAS_UNIT=GY
		PRESSURE=1013.25
		TEMPERATURE=20.00
		NORM_TEMPERATURE=20.00
		CORRECTION_FACTOR=1.0000
		CORRECTIONS=AIR_DENSITY_CORR;
		BEGIN_DATA
			-30.00		270.33E-03
			-15.00		287.98E-03
			15.00		259.64E-03
			30.00		254.86E-03
		END_DATA
	END_SCAN  5
	BEGIN_SCAN  6
		TASK_NAME=MODE_INTERVAL
		PROGRAM=BeamAdjust 1.2
		MEAS_DATE=07-Oct-2010 13:58:48
		LINAC=A4
		MODALITY=X
		INPLANE_AXIS_DIR=TARGET_GUN
		CROSSPLANE_AXIS_DIR=LEFT_RIGHT
		DEPTH_AXIS_DIR=UP_DOWN
		ENERGY=6.00
		SSD=950.00
		WEDGE=None
		FIELD_INPLANE=100.00
		FIELD_CROSSPLANE=100.00
		FIELD_TYPE=RECTANGULAR
		GANTRY=0.00
		GANTRY_UPRIGHT_POSITION=0
		GANTRY_ROTATION=CW
		COLL_ANGLE=90.00
		COLL_OFFSET_INPLANE=0.00
		COLL_OFFSET_CROSSPLANE=0.00
		SCAN_DEVICE=STARCHECK
		ELECTROMETER=2D_ARRAY_INTERFACE
		DETECTOR=STARCHECK
		SCAN_CURVETYPE=CROSSPLANE_PROFILE
		SCAN_DEPTH=0.00
		SCAN_OFFAXIS_INPLANE=100.00
		SCAN_ANGLE=0.00
		SCAN_DIAGONAL=NOT_DIAGONAL
		MEAS_PRESET=TIME_PRESET
		MEAS_TIME=10.000
		MEAS_UNIT=GY
		PRESSURE=1013.25
		TEMPERATURE=20.00
		NORM_TEMPERATURE=20.00
		CORRECTION_FACTOR=1.0000
		CORRECTIONS=AIR_DENSITY_CORR;
		BEGIN_DATA
			-60.00		10.810E-03
			-30.00		15.300E-03
			30.00		14.928E-03
			60.00		9.0557E-03
		END_DATA
	END_SCAN  6
	BEGIN_SCAN  7
		TASK_NAME=MODE_INTERVAL
		PROGRAM=BeamAdjust 1.2
		MEAS_DATE=07-Oct-2010 13:58:48
		LINAC=A4
		MODALITY=X
		INPLANE_AXIS_DIR=TARGET_GUN
		CROSSPLANE_AXIS_DIR=LEFT_RIGHT
		DEPTH_AXIS_DIR=UP_DOWN
		ENERGY=6.00
		SSD=950.00
		WEDGE=None
		FIELD_INPLANE=100.00
		FIELD_CROSSPLANE=100.00
		FIELD_TYPE=RECTANGULAR
		GANTRY=0.00
		GANTRY_UPRIGHT_POSITION=0
		GANTRY_ROTATION=CW
		COLL_ANGLE=90.00
		COLL_OFFSET_INPLANE=0.00
		COLL_OFFSET_CROSSPLANE=0.00
		SCAN_DEVICE=STARCHECK
		ELECTROMETER=2D_ARRAY_INTERFACE
		DETECTOR=STARCHECK
		SCAN_CURVETYPE=CROSSPLANE_PROFILE
		SCAN_DEPTH=0.00
		SCAN_OFFAXIS_INPLANE=130.00
		SCAN_ANGLE=0.00
		SCAN_DIAGONAL=NOT_DIAGONAL
		MEAS_PRESET=TIME_PRESET
		MEAS_TIME=10.000
		MEAS_UNIT=GY
		PRESSURE=1013.25
		TEMPERATURE=20.00
		NORM_TEMPERATURE=20.00
		CORRECTION_FACTOR=1.0000
		CORRECTIONS=AIR_DENSITY_CORR;
		BEGIN_DATA
			-130.00		2.1485E-03
			-80.00		4.2683E-03
			-40.00		7.3570E-03
			40.00		7.1657E-03
			80.00		4.0700E-03
			130.00		2.1333E-03
		END_DATA
	END_SCAN  7
	BEGIN_SCAN  8
		TASK_NAME=MODE_INTERVAL
		PROGRAM=BeamAdjust 1.2
		MEAS_DATE=07-Oct-2010 13:58:48
		LINAC=A4
		MODALITY=X
		INPLANE_AXIS_DIR=TARGET_GUN
		CROSSPLANE_AXIS_DIR=LEFT_RIGHT
		DEPTH_AXIS_DIR=UP_DOWN
		ENERGY=6.00
		SSD=950.00
		WEDGE=None
		FIELD_INPLANE=100.00
		FIELD_CROSSPLANE=100.00
		FIELD_TYPE=RECTANGULAR
		GANTRY=0.00
		GANTRY_UPRIGHT_POSITION=0
		GANTRY_ROTATION=CW
		COLL_ANGLE=90.00
		COLL_OFFSET_INPLANE=0.00
		COLL_OFFSET_CROSSPLANE=0.00
		SCAN_DEVICE=STARCHECK
		ELECTROMETER=2D_ARRAY_INTERFACE
		DETECTOR=STARCHECK
		SCAN_CURVETYPE=INPLANE_PROFILE
		SCAN_DEPTH=0.00
		SCAN_OFFAXIS_CROSSPLANE=-130.00
		SCAN_ANGLE=0.00
		SCAN_DIAGONAL=NOT_DIAGONAL
		MEAS_PRESET=TIME_PRESET
		MEAS_TIME=10.000
		MEAS_UNIT=GY
		PRESSURE=1013.25
		TEMPERATURE=20.00
		NORM_TEMPERATURE=20.00
		CORRECTION_FACTOR=1.0000
		CORRECTIONS=AIR_DENSITY_CORR;
		BEGIN_DATA
			-130.00		3.1595E-03
			-125.00		3.1764E-03
			-120.00		3.6062E-03
			-115.00		3.4914E-03
			-110.00		3.2070E-03
			-105.00		3.7140E-03
			-100.00		4.3038E-03
			-95.00		4.5996E-03
			-90.00		4.7295E-03
			-85.00		4.6958E-03
			-80.00		4.8646E-03
			-75.00		5.2371E-03
			-70.00		5.2588E-03
			-65.00		5.3763E-03
			-60.00		6.1056E-03
			-55.00		6.2018E-03
			-50.00		4.4212E-03
			-45.00		5.1302E-03
			-40.00		5.4824E-03
			-35.00		5.9616E-03
			-30.00		5.8389E-03
			-25.00		5.5346E-03
			-20.00		5.6617E-03
			-15.00		5.3309E-03
			-10.00		5.7774E-03
			-5.00		6.5840E-03
			0.00		6.6868E-03
			5.00		6.7217E-03
			10.00		6.5797E-03
			15.00		6.0672E-03
			20.00		6.4058E-03
			25.00		5.6076E-03
			30.00		5.7334E-03
			35.00		5.7892E-03
			40.00		5.3030E-03
			45.00		5.0647E-03
			50.00		5.2883E-03
			55.00		5.0085E-03
			60.00		4.8997E-03
			65.00		4.1881E-03
			70.00		3.9404E-03
			75.00		4.4445E-03
			80.00		4.4525E-03
			85.00		3.8786E-03
			90.00		3.7075E-03
			95.00		3.9866E-03
			100.00		3.4104E-03
			105.00		2.9420E-03
			110.00		2.7632E-03
			115.00		2.7094E-03
			120.00		2.6226E-03
			125.00		2.5054E-03
			130.00		2.1485E-03
		END_DATA
	END_SCAN  8
	BEGIN_SCAN  9
		TASK_NAME=MODE_INTERVAL
		PROGRAM=BeamAdjust 1.2
		MEAS_DATE=07-Oct-2010 13:58:48
		LINAC=A4
		MODALITY=X
		INPLANE_AXIS_DIR=TARGET_GUN
		CROSSPLANE_AXIS_DIR=LEFT_RIGHT
		DEPTH_AXIS_DIR=UP_DOWN
		ENERGY=6.00
		SSD=950.00
		WEDGE=None
		FIELD_INPLANE=100.00
		FIELD_CROSSPLANE=100.00
		FIELD_TYPE=RECTANGULAR
		GANTRY=0.00
		GANTRY_UPRIGHT_POSITION=0
		GANTRY_ROTATION=CW
		COLL_ANGLE=90.00
		COLL_OFFSET_INPLANE=0.00
		COLL_OFFSET_CROSSPLANE=0.00
		SCAN_DEVICE=STARCHECK
		ELECTROMETER=2D_ARRAY_INTERFACE
		DETECTOR=STARCHECK
		SCAN_CURVETYPE=INPLANE_PROFILE
		SCAN_DEPTH=0.00
		SCAN_OFFAXIS_CROSSPLANE=-100.00
		SCAN_ANGLE=0.00
		SCAN_DIAGONAL=NOT_DIAGONAL
		MEAS_PRESET=TIME_PRESET
		MEAS_TIME=10.000
		MEAS_UNIT=GY
		PRESSURE=1013.25
		TEMPERATURE=20.00
		NORM_TEMPERATURE=20.00
		CORRECTION_FACTOR=1.0000
		CORRECTIONS=AIR_DENSITY_CORR;
		BEGIN_DATA
			-60.00		9.2937E-03
			-30.00		11.620E-03
			30.00		10.952E-03
			60.00		8.4943E-03
		END_DATA
	END_SCAN  9
	BEGIN_SCAN  10
		TASK_NAME=MODE_INTERVAL
		PROGRAM=BeamAdjust 1.2
		MEAS_DATE=07-Oct-2010 13:58:48
		LINAC=A4
		MODALITY=X
		INPLANE_AXIS_DIR=TARGET_GUN
		CROSSPLANE_AXIS_DIR=LEFT_RIGHT
		DEPTH_AXIS_DIR=UP_DOWN
		ENERGY=6.00
		SSD=950.00
		WEDGE=None
		FIELD_INPLANE=100.00
		FIELD_CROSSPLANE=100.00
		FIELD_TYPE=RECTANGULAR
		GANTRY=0.00
		GANTRY_UPRIGHT_POSITION=0
		GANTRY_ROTATION=CW
		COLL_ANGLE=90.00
		COLL_OFFSET_INPLANE=0.00
		COLL_OFFSET_CROSSPLANE=0.00
		SCAN_DEVICE=STARCHECK
		ELECTROMETER=2D_ARRAY_INTERFACE
		DETECTOR=STARCHECK
		SCAN_CURVETYPE=INPLANE_PROFILE
		SCAN_DEPTH=0.00
		SCAN_OFFAXIS_CROSSPLANE=-50.00
		SCAN_ANGLE=0.00
		SCAN_DIAGONAL=NOT_DIAGONAL
		MEAS_PRESET=TIME_PRESET
		MEAS_TIME=10.000
		MEAS_UNIT=GY
		PRESSURE=1013.25
		TEMPERATURE=20.00
		NORM_TEMPERATURE=20.00
		CORRECTION_FACTOR=1.0000
		CORRECTIONS=AIR_DENSITY_CORR;
		BEGIN_DATA
			-30.00		554.76E-03
			-15.00		552.75E-03
			15.00		546.27E-03
			30.00		536.64E-03
		END_DATA
	END_SCAN  10
	BEGIN_SCAN  11
		TASK_NAME=MODE_INTERVAL
		PROGRAM=BeamAdjust 1.2
		MEAS_DATE=07-Oct-2010 13:58:48
		LINAC=A4
		MODALITY=X
		INPLANE_AXIS_DIR=TARGET_GUN
		CROSSPLANE_AXIS_DIR=LEFT_RIGHT
		DEPTH_AXIS_DIR=UP_DOWN
		ENERGY=6.00
		SSD=950.00
		WEDGE=None
		FIELD_INPLANE=100.00
		FIELD_CROSSPLANE=100.00
		FIELD_TYPE=RECTANGULAR
		GANTRY=0.00
		GANTRY_UPRIGHT_POSITION=0
		GANTRY_ROTATION=CW
		COLL_ANGLE=90.00
		COLL_OFFSET_INPLANE=0.00
		COLL_OFFSET_CROSSPLANE=0.00
		SCAN_DEVICE=STARCHECK
		ELECTROMETER=2D_ARRAY_INTERFACE
		DETECTOR=STARCHECK
		SCAN_CURVETYPE=INPLANE_PROFILE
		SCAN_DEPTH=0.00
		SCAN_OFFAXIS_CROSSPLANE=0.00
		SCAN_ANGLE=0.00
		SCAN_DIAGONAL=NOT_DIAGONAL
		MEAS_PRESET=TIME_PRESET
		MEAS_TIME=10.000
		MEAS_UNIT=GY
		PRESSURE=1013.25
		TEMPERATURE=20.00
		NORM_TEMPERATURE=20.00
		CORRECTION_FACTOR=1.0000
		CORRECTIONS=AIR_DENSITY_CORR;
		BEGIN_DATA
			-126.00		9.2314E-03
			-123.00		8.9884E-03
			-120.00		10.386E-03
			-117.00		11.486E-03
			-114.00		12.070E-03
			-111.00		13.213E-03
			-108.00		13.626E-03
			-105.00		14.781E-03
			-102.00		15.868E-03
			-99.00		16.730E-03
			-96.00		18.282E-03
			-93.00		20.348E-03
			-90.00		21.658E-03
			-87.00		23.600E-03
			-84.00		25.633E-03
			-81.00		28.150E-03
			-78.00		30.596E-03
			-75.00		33.191E-03
			-72.00		36.747E-03
			-69.00		41.076E-03
			-66.00		46.147E-03
			-63.00		52.510E-03
			-60.00		62.887E-03
			-57.00		82.648E-03
			-54.00		132.11E-03
			-51.00		299.84E-03
			-48.00		554.50E-03
			-45.00		623.43E-03
			-42.00		643.84E-03
			-39.00		652.57E-03
			-36.00		658.53E-03
			-33.00		661.71E-03
			-30.00		665.47E-03
			-27.00		667.32E-03
			-24.00		666.22E-03
			-21.00		664.96E-03
			-18.00		671.51E-03
			-15.00		669.87E-03
			-12.00		671.65E-03
			-9.00		671.41E-03
			-6.00		668.65E-03
			0.00		668.66E-03
			6.00		672.83E-03
			9.00		672.07E-03
			12.00		671.30E-03
			15.00		669.18E-03
			18.00		664.67E-03
			21.00		664.52E-03
			24.00		661.64E-03
			27.00		662.35E-03
			30.00		658.48E-03
			33.00		656.30E-03
			36.00		653.82E-03
			39.00		642.92E-03
			42.00		631.16E-03
			45.00		597.76E-03
			48.00		436.78E-03
			51.00		189.71E-03
			54.00		98.989E-03
			57.00		69.936E-03
			60.00		56.694E-03
			63.00		48.800E-03
			66.00		44.326E-03
			69.00		39.120E-03
			72.00		35.278E-03
			75.00		31.492E-03
			78.00		28.308E-03
			81.00		26.329E-03
			84.00		24.188E-03
			87.00		22.475E-03
			90.00		21.085E-03
			93.00		19.539E-03
			96.00		17.942E-03
			99.00		16.497E-03
			102.00		15.081E-03
			105.00		14.389E-03
			108.00		14.053E-03
			111.00		12.272E-03
			114.00		11.440E-03
			117.00		11.017E-03
			120.00		10.443E-03
			123.00		9.6770E-03
			126.00		8.9587E-03
		END_DATA
	END_SCAN  11
	BEGIN_SCAN  12
		TASK_NAME=MODE_INTERVAL
		PROGRAM=BeamAdjust 1.2
		MEAS_DATE=07-Oct-2010 13:58:48
		LINAC=A4
		MODALITY=X
		INPLANE_AXIS_DIR=TARGET_GUN
		CROSSPLANE_AXIS_DIR=LEFT_RIGHT
		DEPTH_AXIS_DIR=UP_DOWN
		ENERGY=6.00
		SSD=950.00
		WEDGE=None
		FIELD_INPLANE=100.00
		FIELD_CROSSPLANE=100.00
		FIELD_TYPE=RECTANGULAR
		GANTRY=0.00
		GANTRY_UPRIGHT_POSITION=0
		GANTRY_ROTATION=CW
		COLL_ANGLE=90.00
		COLL_OFFSET_INPLANE=0.00
		COLL_OFFSET_CROSSPLANE=0.00
		SCAN_DEVICE=STARCHECK
		ELECTROMETER=2D_ARRAY_INTERFACE
		DETECTOR=STARCHECK
		SCAN_CURVETYPE=INPLANE_PROFILE
		SCAN_DEPTH=0.00
		SCAN_OFFAXIS_CROSSPLANE=50.00
		SCAN_ANGLE=0.00
		SCAN_DIAGONAL=NOT_DIAGONAL
		MEAS_PRESET=TIME_PRESET
		MEAS_TIME=10.000
		MEAS_UNIT=GY
		PRESSURE=1013.25
		TEMPERATURE=20.00
		NORM_TEMPERATURE=20.00
		CORRECTION_FACTOR=1.0000
		CORRECTIONS=AIR_DENSITY_CORR;
		BEGIN_DATA
			-30.00		160.52E-03
			-15.00		168.61E-03
			15.00		174.77E-03
			30.00		174.53E-03
		END_DATA
	END_SCAN  12
	BEGIN_SCAN  13
		TASK_NAME=MODE_INTERVAL
		PROGRAM=BeamAdjust 1.2
		MEAS_DATE=07-Oct-2010 13:58:48
		LINAC=A4
		MODALITY=X
		INPLANE_AXIS_DIR=TARGET_GUN
		CROSSPLANE_AXIS_DIR=LEFT_RIGHT
		DEPTH_AXIS_DIR=UP_DOWN
		ENERGY=6.00
		SSD=950.00
		WEDGE=None
		FIELD_INPLANE=100.00
		FIELD_CROSSPLANE=100.00
		FIELD_TYPE=RECTANGULAR
		GANTRY=0.00
		GANTRY_UPRIGHT_POSITION=0
		GANTRY_ROTATION=CW
		COLL_ANGLE=90.00
		COLL_OFFSET_INPLANE=0.00
		COLL_OFFSET_CROSSPLANE=0.00
		SCAN_DEVICE=STARCHECK
		ELECTROMETER=2D_ARRAY_INTERFACE
		DETECTOR=STARCHECK
		SCAN_CURVETYPE=INPLANE_PROFILE
		SCAN_DEPTH=0.00
		SCAN_OFFAXIS_CROSSPLANE=100.00
		SCAN_ANGLE=0.00
		SCAN_DIAGONAL=NOT_DIAGONAL
		MEAS_PRESET=TIME_PRESET
		MEAS_TIME=10.000
		MEAS_UNIT=GY
		PRESSURE=1013.25
		TEMPERATURE=20.00
		NORM_TEMPERATURE=20.00
		CORRECTION_FACTOR=1.0000
		CORRECTIONS=AIR_DENSITY_CORR;
		BEGIN_DATA
			-60.00		7.6959E-03
			-30.00		10.097E-03
			30.00		10.001E-03
			60.00		7.4496E-03
		END_DATA
	END_SCAN  13
	BEGIN_SCAN  14
		TASK_NAME=MODE_INTERVAL
		PROGRAM=BeamAdjust 1.2
		MEAS_DATE=07-Oct-2010 13:58:48
		LINAC=A4
		MODALITY=X
		INPLANE_AXIS_DIR=TARGET_GUN
		CROSSPLANE_AXIS_DIR=LEFT_RIGHT
		DEPTH_AXIS_DIR=UP_DOWN
		ENERGY=6.00
		SSD=950.00
		WEDGE=None
		FIELD_INPLANE=100.00
		FIELD_CROSSPLANE=100.00
		FIELD_TYPE=RECTANGULAR
		GANTRY=0.00
		GANTRY_UPRIGHT_POSITION=0
		GANTRY_ROTATION=CW
		COLL_ANGLE=90.00
		COLL_OFFSET_INPLANE=0.00
		COLL_OFFSET_CROSSPLANE=0.00
		SCAN_DEVICE=STARCHECK
		ELECTROMETER=2D_ARRAY_INTERFACE
		DETECTOR=STARCHECK
		SCAN_CURVETYPE=INPLANE_PROFILE
		SCAN_DEPTH=0.00
		SCAN_OFFAXIS_CROSSPLANE=130.00
		SCAN_ANGLE=0.00
		SCAN_DIAGONAL=NOT_DIAGONAL
		MEAS_PRESET=TIME_PRESET
		MEAS_TIME=10.000
		MEAS_UNIT=GY
		PRESSURE=1013.25
		TEMPERATURE=20.00
		NORM_TEMPERATURE=20.00
		CORRECTION_FACTOR=1.0000
		CORRECTIONS=AIR_DENSITY_CORR;
		BEGIN_DATA
			-130.00		2.1439E-03
			-125.00		2.5790E-03
			-120.00		2.7726E-03
			-115.00		2.9760E-03
			-110.00		2.6270E-03
			-105.00		2.3157E-03
			-100.00		3.0491E-03
			-95.00		3.3864E-03
			-90.00		2.7606E-03
			-85.00		3.6235E-03
			-80.00		3.7905E-03
			-75.00		4.0001E-03
			-70.00		3.9927E-03
			-65.00		3.5540E-03
			-60.00		4.3604E-03
			-55.00		4.1627E-03
			-50.00		4.6267E-03
			-45.00		4.4036E-03
			-40.00		4.7723E-03
			-35.00		5.4681E-03
			-30.00		5.4122E-03
			-25.00		4.7650E-03
			-20.00		5.0739E-03
			-15.00		5.1760E-03
			-10.00		4.6325E-03
			-5.00		5.3553E-03
			0.00		5.7936E-03
			5.00		5.7371E-03
			10.00		5.9818E-03
			15.00		5.2309E-03
			20.00		5.6665E-03
			25.00		5.3560E-03
			30.00		5.0727E-03
			35.00		4.8334E-03
			40.00		5.0311E-03
			45.00		4.8335E-03
			50.00		4.5582E-03
			55.00		5.1718E-03
			60.00		4.4733E-03
			65.00		3.9257E-03
			70.00		4.1024E-03
			75.00		3.9565E-03
			80.00		3.7213E-03
			85.00		3.1592E-03
			90.00		3.7465E-03
			95.00		3.3519E-03
			100.00		3.3507E-03
			105.00		2.4144E-03
			110.00		2.4802E-03
			115.00		2.7918E-03
			120.00		2.5472E-03
			125.00		1.9512E-03
			130.00		2.1333E-03
		END_DATA
	END_SCAN  14
	BEGIN_SCAN  15
		TASK_NAME=MODE_INTERVAL
		PROGRAM=BeamAdjust 1.2
		MEAS_DATE=07-Oct-2010 13:58:48
		LINAC=A4
		MODALITY=X
		INPLANE_AXIS_DIR=TARGET_GUN
		CROSSPLANE_AXIS_DIR=LEFT_RIGHT
		DEPTH_AXIS_DIR=UP_DOWN
		ENERGY=6.00
		SSD=950.00
		WEDGE=None
		FIELD_INPLANE=100.00
		FIELD_CROSSPLANE=100.00
		FIELD_TYPE=RECTANGULAR
		GANTRY=0.00
		GANTRY_UPRIGHT_POSITION=0
		GANTRY_ROTATION=CW
		COLL_ANGLE=90.00
		COLL_OFFSET_INPLANE=0.00
		COLL_OFFSET_CROSSPLANE=0.00
		SCAN_DEVICE=STARCHECK
		ELECTROMETER=2D_ARRAY_INTERFACE
		DETECTOR=STARCHECK
		SCAN_CURVETYPE=INPLANE_PROFILE
		SCAN_DEPTH=0.00
		SCAN_OFFAXIS_CROSSPLANE=0.00
		SCAN_ANGLE=0.00
		SCAN_DIAGONAL=FIRST_DIAGONAL
		MEAS_PRESET=TIME_PRESET
		MEAS_TIME=10.000
		MEAS_UNIT=GY
		PRESSURE=1013.25
		TEMPERATURE=20.00
		NORM_TEMPERATURE=20.00
		CORRECTION_FACTOR=1.0000
		CORRECTIONS=AIR_DENSITY_CORR;
		BEGIN_DATA
			-172.40		2.8619E-03
			-169.40		3.4250E-03
			-166.40		4.0476E-03
			-163.40		3.9645E-03
			-160.40		4.1012E-03
			-157.40		4.3374E-03
			-154.40		4.8991E-03
			-151.40		4.3804E-03
			-148.40		5.0509E-03
			-145.40		5.6454E-03
			-142.40		5.8585E-03
			-139.40		6.3344E-03
			-136.40		6.4369E-03
			-133.40		7.4530E-03
			-130.40		7.4531E-03
			-127.40		7.9119E-03
			-124.40		8.6075E-03
			-121.40		9.5076E-03
			-118.40		10.403E-03
			-115.40		10.935E-03
			-112.40		12.641E-03
			-109.40		13.673E-03
			-106.40		14.363E-03
			-103.40		15.024E-03
			-100.40		16.727E-03
			-97.40		19.197E-03
			-94.40		21.144E-03
			-91.40		23.481E-03
			-88.40		26.736E-03
			-85.40		30.084E-03
			-82.40		35.755E-03
			-79.40		44.533E-03
			-76.40		64.625E-03
			-73.40		137.48E-03
			-70.40		322.09E-03
			-67.40		497.19E-03
			-64.40		583.65E-03
			-61.40		615.52E-03
			-58.40		630.71E-03
			-55.40		640.49E-03
			-52.40		646.37E-03
			-49.40		651.09E-03
			-46.40		653.34E-03
			-43.40		655.38E-03
			-40.40		658.45E-03
			-37.40		662.87E-03
			-34.40		662.10E-03
			-31.40		663.77E-03
			-28.40		662.81E-03
			-25.40		665.38E-03
			-22.40		665.56E-03
			-19.40		666.90E-03
			-16.40		670.35E-03
			-13.40		672.01E-03
			0.00		668.66E-03
			13.40		671.58E-03
			16.40		667.24E-03
			19.40		667.40E-03
			22.40		666.26E-03
			25.40		664.96E-03
			28.40		663.64E-03
			31.40		661.47E-03
			34.40		658.00E-03
			37.40		660.39E-03
			40.40		657.09E-03
			43.40		654.04E-03
			46.40		651.31E-03
			49.40		644.50E-03
			52.40		638.32E-03
			55.40		624.06E-03
			58.40		603.43E-03
			61.40		553.90E-03
			64.40		413.39E-03
			67.40		206.84E-03
			70.40		85.283E-03
			73.40		50.732E-03
			76.40		38.779E-03
			79.40		32.422E-03
			82.40		28.008E-03
			85.40		24.819E-03
			88.40		22.513E-03
			91.40		20.244E-03
			94.40		18.242E-03
			97.40		16.270E-03
			100.40		14.818E-03
			103.40		14.222E-03
			106.40		13.073E-03
			109.40		11.618E-03
			112.40		9.9234E-03
			115.40		10.113E-03
			118.40		9.3276E-03
			121.40		8.1305E-03
			124.40		7.6687E-03
			127.40		7.2808E-03
			130.40		7.2065E-03
			133.40		6.0345E-03
			136.40		5.2061E-03
			139.40		5.0899E-03
			142.40		4.8715E-03
			145.40		4.6643E-03
			148.40		4.4461E-03
			151.40		3.8515E-03
			154.40		4.0136E-03
			157.40		3.5341E-03
			160.40		2.9265E-03
			163.40		2.8909E-03
			166.40		3.1577E-03
			169.40		2.9184E-03
			172.40		2.8832E-03
		END_DATA
	END_SCAN  15
	BEGIN_SCAN  16
		TASK_NAME=MODE_INTERVAL
		PROGRAM=BeamAdjust 1.2
		MEAS_DATE=07-Oct-2010 13:58:48
		LINAC=A4
		MODALITY=X
		INPLANE_AXIS_DIR=GUN_TARGET
		CROSSPLANE_AXIS_DIR=LEFT_RIGHT
		DEPTH_AXIS_DIR=UP_DOWN
		ENERGY=6.00
		SSD=950.00
		WEDGE=None
		FIELD_INPLANE=100.00
		FIELD_CROSSPLANE=100.00
		FIELD_TYPE=RECTANGULAR
		GANTRY=0.00
		GANTRY_UPRIGHT_POSITION=0
		GANTRY_ROTATION=CW
		COLL_ANGLE=90.00
		COLL_OFFSET_INPLANE=0.00
		COLL_OFFSET_CROSSPLANE=0.00
		SCAN_DEVICE=STARCHECK
		ELECTROMETER=2D_ARRAY_INTERFACE
		DETECTOR=STARCHECK
		SCAN_CURVETYPE=INPLANE_PROFILE
		SCAN_DEPTH=0.00
		SCAN_OFFAXIS_CROSSPLANE=0.00
		SCAN_ANGLE=0.00
		SCAN_DIAGONAL=SECOND_DIAGONAL
		MEAS_PRESET=TIME_PRESET
		MEAS_TIME=10.000
		MEAS_UNIT=GY
		PRESSURE=1013.25
		TEMPERATURE=20.00
		NORM_TEMPERATURE=20.00
		CORRECTION_FACTOR=1.0000
		CORRECTIONS=AIR_DENSITY_CORR;
		BEGIN_DATA
			-172.40		2.7076E-03
			-169.40		3.1395E-03
			-166.40		2.9606E-03
			-163.40		3.0565E-03
			-160.40		3.5376E-03
			-157.40		3.9316E-03
			-154.40		4.0641E-03
			-151.40		4.8566E-03
			-148.40		4.5901E-03
			-145.40		4.7501E-03
			-142.40		5.2591E-03
			-139.40		5.2739E-03
			-136.40		5.6591E-03
			-133.40		6.6927E-03
			-130.40		6.8899E-03
			-127.40		7.4202E-03
			-124.40		8.1207E-03
			-121.40		8.6476E-03
			-118.40		8.9882E-03
			-115.40		9.5596E-03
			-112.40		10.159E-03
			-109.40		12.177E-03
			-106.40		12.750E-03
			-103.40		13.796E-03
			-100.40		15.249E-03
			-97.40		16.570E-03
			-94.40		18.092E-03
			-91.40		20.074E-03
			-88.40		21.878E-03
			-85.40		24.756E-03
			-82.40		28.270E-03
			-79.40		33.393E-03
			-76.40		40.680E-03
			-73.40		56.235E-03
			-70.40		102.79E-03
			-67.40		257.24E-03
			-64.40		451.91E-03
			-61.40		569.11E-03
			-58.40		614.79E-03
			-55.40		632.50E-03
			-52.40		646.34E-03
			-49.40		651.99E-03
			-46.40		656.11E-03
			-43.40		659.00E-03
			-40.40		661.44E-03
			-37.40		665.10E-03
			-34.40		664.84E-03
			-31.40		665.91E-03
			-28.40		668.60E-03
			-25.40		667.35E-03
			-22.40		665.64E-03
			-19.40		668.56E-03
			-16.40		670.03E-03
			-13.40		673.01E-03
			0.00		668.66E-03
			13.40		672.66E-03
			16.40		669.63E-03
			19.40		665.81E-03
			22.40		663.30E-03
			25.40		663.18E-03
			28.40		662.06E-03
			31.40		660.54E-03
			34.40		657.61E-03
			37.40		657.60E-03
			40.40		655.78E-03
			43.40		653.55E-03
			46.40		651.96E-03
			49.40		648.29E-03
			52.40		640.11E-03
			55.40		632.53E-03
			58.40		623.07E-03
			61.40		597.68E-03
			64.40		534.57E-03
			67.40		399.91E-03
			70.40		215.27E-03
			73.40		91.417E-03
			76.40		52.825E-03
			79.40		39.954E-03
			82.40		33.549E-03
			85.40		28.975E-03
			88.40		25.824E-03
			91.40		23.086E-03
			94.40		20.665E-03
			97.40		19.134E-03
			100.40		16.326E-03
			103.40		14.814E-03
			106.40		13.963E-03
			109.40		12.722E-03
			112.40		11.683E-03
			115.40		10.711E-03
			118.40		9.7791E-03
			121.40		9.6314E-03
			124.40		8.2082E-03
			127.40		7.7259E-03
			130.40		7.6160E-03
			133.40		6.7551E-03
			136.40		6.2138E-03
			139.40		6.2423E-03
			142.40		5.5100E-03
			145.40		5.6009E-03
			148.40		5.0486E-03
			151.40		4.2560E-03
			154.40		4.2466E-03
			157.40		4.3475E-03
			160.40		3.8958E-03
			163.40		4.6108E-03
			166.40		3.5853E-03
			169.40		2.8539E-03
			172.40		2.3947E-03
		END_DATA
	END_SCAN  16
END_SCAN_DATA
