BEGIN_SCAN_DATA
	FORMAT=CC-Export V1.9                  
	FILE_CREATION_DATE=07-Oct-2010 13:59:19
	LAST_MODIFIED=07-Oct-2010 13:59:19
	BEGIN_SCAN  1
		TASK_NAME=MODE_INTERVAL
		PROGRAM=BeamAdjust 1.2
		MEAS_DATE=07-Oct-2010 13:59:19
		LINAC=A4
		MODALITY=X
		INPLANE_AXIS_DIR=TARGET_GUN
		CROSSPLANE_AXIS_DIR=LEFT_RIGHT
		DEPTH_AXIS_DIR=UP_DOWN
		ENERGY=6.00
		SSD=950.00
		WEDGE=None
		FIELD_INPLANE=100.00
		FIELD_CROSSPLANE=100.00
		FIELD_TYPE=RECTANGULAR
		GANTRY=0.00
		GANTRY_UPRIGHT_POSITION=0
		GANTRY_ROTATION=CW
		COLL_ANGLE=90.00
		COLL_OFFSET_INPLANE=0.00
		COLL_OFFSET_CROSSPLANE=0.00
		SCAN_DEVICE=STARCHECK
		ELECTROMETER=2D_ARRAY_INTERFACE
		DETECTOR=STARCHECK
		SCAN_CURVETYPE=CROSSPLANE_PROFILE
		SCAN_DEPTH=0.00
		SCAN_OFFAXIS_INPLANE=-130.00
		SCAN_ANGLE=0.00
		SCAN_DIAGONAL=NOT_DIAGONAL
		MEAS_PRESET=TIME_PRESET
		MEAS_TIME=10.000
		MEAS_UNIT=GY
		PRESSURE=1013.25
		TEMPERATURE=20.00
		NORM_TEMPERATURE=20.00
		CORRECTION_FACTOR=1.0000
		CORRECTIONS=AIR_DENSITY_CORR;
		BEGIN_DATA
			-130.00		2.7020E-03
			-80.00		4.6677E-03
			-40.00		7.4557E-03
			40.00		7.0158E-03
			80.00		3.9233E-03
			130.00		1.8731E-03
		END_DATA
	END_SCAN  1
	BEGIN_SCAN  2
		TASK_NAME=MODE_INTERVAL
		PROGRAM=BeamAdjust 1.2
		MEAS_DATE=07-Oct-2010 13:59:19
		LINAC=A4
		MODALITY=X
		INPLANE_AXIS_DIR=TARGET_GUN
		CROSSPLANE_AXIS_DIR=LEFT_RIGHT
		DEPTH_AXIS_DIR=UP_DOWN
		ENERGY=6.00
		SSD=950.00
		WEDGE=None
		FIELD_INPLANE=100.00
		FIELD_CROSSPLANE=100.00
		FIELD_TYPE=RECTANGULAR
		GANTRY=0.00
		GANTRY_UPRIGHT_POSITION=0
		GANTRY_ROTATION=CW
		COLL_ANGLE=90.00
		COLL_OFFSET_INPLANE=0.00
		COLL_OFFSET_CROSSPLANE=0.00
		SCAN_DEVICE=STARCHECK
		ELECTROMETER=2D_ARRAY_INTERFACE
		DETECTOR=STARCHECK
		SCAN_CURVETYPE=CROSSPLANE_PROFILE
		SCAN_DEPTH=0.00
		SCAN_OFFAXIS_INPLANE=-100.00
		SCAN_ANGLE=0.00
		SCAN_DIAGONAL=NOT_DIAGONAL
		MEAS_PRESET=TIME_PRESET
		MEAS_TIME=10.000
		MEAS_UNIT=GY
		PRESSURE=1013.25
		TEMPERATURE=20.00
		NORM_TEMPERATURE=20.00
		CORRECTION_FACTOR=1.0000
		CORRECTIONS=AIR_DENSITY_CORR;
		BEGIN_DATA
			-60.00		10.897E-03
			-30.00		14.690E-03
			30.00		14.660E-03
			60.00		9.5282E-03
		END_DATA
	END_SCAN  2
	BEGIN_SCAN  3
		TASK_NAME=MODE_INTERVAL
		PROGRAM=BeamAdjust 1.2
		MEAS_DATE=07-Oct-2010 13:59:19
		LINAC=A4
		MODALITY=X
		INPLANE_AXIS_DIR=TARGET_GUN
		CROSSPLANE_AXIS_DIR=LEFT_RIGHT
		DEPTH_AXIS_DIR=UP_DOWN
		ENERGY=6.00
		SSD=950.00
		WEDGE=None
		FIELD_INPLANE=100.00
		FIELD_CROSSPLANE=100.00
		FIELD_TYPE=RECTANGULAR
		GANTRY=0.00
		GANTRY_UPRIGHT_POSITION=0
		GANTRY_ROTATION=CW
		COLL_ANGLE=90.00
		COLL_OFFSET_INPLANE=0.00
		COLL_OFFSET_CROSSPLANE=0.00
		SCAN_DEVICE=STARCHECK
		ELECTROMETER=2D_ARRAY_INTERFACE
		DETECTOR=STARCHECK
		SCAN_CURVETYPE=CROSSPLANE_PROFILE
		SCAN_DEPTH=0.00
		SCAN_OFFAXIS_INPLANE=-50.00
		SCAN_ANGLE=0.00
		SCAN_DIAGONAL=NOT_DIAGONAL
		MEAS_PRESET=TIME_PRESET
		MEAS_TIME=10.000
		MEAS_UNIT=GY
		PRESSURE=1013.25
		TEMPERATURE=20.00
		NORM_TEMPERATURE=20.00
		CORRECTION_FACTOR=1.0000
		CORRECTIONS=AIR_DENSITY_CORR;
		BEGIN_DATA
			-30.00		388.61E-03
			-15.00		363.38E-03
			15.00		386.26E-03
			30.00		380.07E-03
		END_DATA
	END_SCAN  3
	BEGIN_SCAN  4
		TASK_NAME=MODE_INTERVAL
		PROGRAM=BeamAdjust 1.2
		MEAS_DATE=07-Oct-2010 13:59:19
		LINAC=A4
		MODALITY=X
		INPLANE_AXIS_DIR=TARGET_GUN
		CROSSPLANE_AXIS_DIR=LEFT_RIGHT
		DEPTH_AXIS_DIR=UP_DOWN
		ENERGY=6.00
		SSD=950.00
		WEDGE=None
		FIELD_INPLANE=100.00
		FIELD_CROSSPLANE=100.00
		FIELD_TYPE=RECTANGULAR
		GANTRY=0.00
		GANTRY_UPRIGHT_POSITION=0
		GANTRY_ROTATION=CW
		COLL_ANGLE=90.00
		COLL_OFFSET_INPLANE=0.00
		COLL_OFFSET_CROSSPLANE=0.00
		SCAN_DEVICE=STARCHECK
		ELECTROMETER=2D_ARRAY_INTERFACE
		DETECTOR=STARCHECK
		SCAN_CURVETYPE=CROSSPLANE_PROFILE
		SCAN_DEPTH=0.00
		SCAN_OFFAXIS_INPLANE=0.00
		SCAN_ANGLE=0.00
		SCAN_DIAGONAL=NOT_DIAGONAL
		MEAS_PRESET=TIME_PRESET
		MEAS_TIME=10.000
		MEAS_UNIT=GY
		PRESSURE=1013.25
		TEMPERATURE=20.00
		NORM_TEMPERATURE=20.00
		CORRECTION_FACTOR=1.0000
		CORRECTIONS=AIR_DENSITY_CORR;
		BEGIN_DATA
			-126.00		7.0378E-03
			-123.00		8.0058E-03
			-120.00		8.4144E-03
			-117.00		9.4584E-03
			-114.00		9.9765E-03
			-111.00		10.234E-03
			-108.00		11.683E-03
			-105.00		11.858E-03
			-102.00		12.842E-03
			-99.00		14.065E-03
			-96.00		15.087E-03
			-93.00		16.201E-03
			-90.00		17.975E-03
			-87.00		19.760E-03
			-84.00		22.438E-03
			-81.00		24.111E-03
			-78.00		26.390E-03
			-75.00		29.950E-03
			-72.00		33.506E-03
			-69.00		38.672E-03
			-66.00		45.040E-03
			-63.00		53.012E-03
			-60.00		67.933E-03
			-57.00		102.57E-03
			-54.00		230.45E-03
			-51.00		521.49E-03
			-48.00		612.23E-03
			-45.00		634.05E-03
			-42.00		644.34E-03
			-39.00		653.22E-03
			-36.00		657.96E-03
			-33.00		656.94E-03
			-30.00		658.32E-03
			-27.00		660.77E-03
			-24.00		663.84E-03
			-21.00		663.06E-03
			-18.00		669.42E-03
			-15.00		668.88E-03
			-12.00		666.92E-03
			-9.00		669.44E-03
			-6.00		668.38E-03
			0.00		668.44E-03
			6.00		671.81E-03
			9.00		670.57E-03
			12.00		667.22E-03
			15.00		666.34E-03
			18.00		666.34E-03
			21.00		664.24E-03
			24.00		660.70E-03
			27.00		664.31E-03
			30.00		661.99E-03
			33.00		658.34E-03
			36.00		653.19E-03
			39.00		643.51E-03
			42.00		622.06E-03
			45.00		559.22E-03
			48.00		294.36E-03
			51.00		113.88E-03
			54.00		72.721E-03
			57.00		55.677E-03
			60.00		45.812E-03
			63.00		39.871E-03
			66.00		34.676E-03
			69.00		30.207E-03
			72.00		27.269E-03
			75.00		24.469E-03
			78.00		22.040E-03
			81.00		20.199E-03
			84.00		18.106E-03
			87.00		16.321E-03
			90.00		16.126E-03
			93.00		14.422E-03
			96.00		12.823E-03
			99.00		12.123E-03
			102.00		11.180E-03
			105.00		10.558E-03
			108.00		10.959E-03
			111.00		8.8909E-03
			114.00		8.2673E-03
			117.00		7.9252E-03
			120.00		7.2024E-03
			123.00		6.9886E-03
			126.00		6.9954E-03
		END_DATA
	END_SCAN  4
	BEGIN_SCAN  5
		TASK_NAME=MODE_INTERVAL
		PROGRAM=BeamAdjust 1.2
		MEAS_DATE=07-Oct-2010 13:59:19
		LINAC=A4
		MODALITY=X
		INPLANE_AXIS_DIR=TARGET_GUN
		CROSSPLANE_AXIS_DIR=LEFT_RIGHT
		DEPTH_AXIS_DIR=UP_DOWN
		ENERGY=6.00
		SSD=950.00
		WEDGE=None
		FIELD_INPLANE=100.00
		FIELD_CROSSPLANE=100.00
		FIELD_TYPE=RECTANGULAR
		GANTRY=0.00
		GANTRY_UPRIGHT_POSITION=0
		GANTRY_ROTATION=CW
		COLL_ANGLE=90.00
		COLL_OFFSET_INPLANE=0.00
		COLL_OFFSET_CROSSPLANE=0.00
		SCAN_DEVICE=STARCHECK
		ELECTROMETER=2D_ARRAY_INTERFACE
		DETECTOR=STARCHECK
		SCAN_CURVETYPE=CROSSPLANE_PROFILE
		SCAN_DEPTH=0.00
		SCAN_OFFAXIS_INPLANE=50.00
		SCAN_ANGLE=0.00
		SCAN_DIAGONAL=NOT_DIAGONAL
		MEAS_PRESET=TIME_PRESET
		MEAS_TIME=10.000
		MEAS_UNIT=GY
		PRESSURE=1013.25
		TEMPERATURE=20.00
		NORM_TEMPERATURE=20.00
		CORRECTION_FACTOR=1.0000
		CORRECTIONS=AIR_DENSITY_CORR;
		BEGIN_DATA
			-30.00		269.62E-03
			-15.00		288.77E-03
			15.00		260.82E-03
			30.00		253.49E-03
		END_DATA
	END_SCAN  5
	BEGIN_SCAN  6
		TASK_NAME=MODE_INTERVAL
		PROGRAM=BeamAdjust 1.2
		MEAS_DATE=07-Oct-2010 13:59:19
		LINAC=A4
		MODALITY=X
		INPLANE_AXIS_DIR=TARGET_GUN
		CROSSPLANE_AXIS_DIR=LEFT_RIGHT
		DEPTH_AXIS_DIR=UP_DOWN
		ENERGY=6.00
		SSD=950.00
		WEDGE=None
		FIELD_INPLANE=100.00
		FIELD_CROSSPLANE=100.00
		FIELD_TYPE=RECTANGULAR
		GANTRY=0.00
		GANTRY_UPRIGHT_POSITION=0
		GANTRY_ROTATION=CW
		COLL_ANGLE=90.00
		COLL_OFFSET_INPLANE=0.00
		COLL_OFFSET_CROSSPLANE=0.00
		SCAN_DEVICE=STARCHECK
		ELECTROMETER=2D_ARRAY_INTERFACE
		DETECTOR=STARCHECK
		SCAN_CURVETYPE=CROSSPLANE_PROFILE
		SCAN_DEPTH=0.00
		SCAN_OFFAXIS_INPLANE=100.00
		SCAN_ANGLE=0.00
		SCAN_DIAGONAL=NOT_DIAGONAL
		MEAS_PRESET=TIME_PRESET
		MEAS_TIME=10.000
		MEAS_UNIT=GY
		PRESSURE=1013.25
		TEMPERATURE=20.00
		NORM_TEMPERATURE=20.00
		CORRECTION_FACTOR=1.0000
		CORRECTIONS=AIR_DENSITY_CORR;
		BEGIN_DATA
			-60.00		10.937E-03
			-30.00		14.745E-03
			30.00		14.684E-03
			60.00		8.8616E-03
		END_DATA
	END_SCAN  6
	BEGIN_SCAN  7
		TASK_NAME=MODE_INTERVAL
		PROGRAM=BeamAdjust 1.2
		MEAS_DATE=07-Oct-2010 13:59:19
		LINAC=A4
		MODALITY=X
		INPLANE_AXIS_DIR=TARGET_GUN
		CROSSPLANE_AXIS_DIR=LEFT_RIGHT
		DEPTH_AXIS_DIR=UP_DOWN
		ENERGY=6.00
		SSD=950.00
		WEDGE=None
		FIELD_INPLANE=100.00
		FIELD_CROSSPLANE=100.00
		FIELD_TYPE=RECTANGULAR
		GANTRY=0.00
		GANTRY_UPRIGHT_POSITION=0
		GANTRY_ROTATION=CW
		COLL_ANGLE=90.00
		COLL_OFFSET_INPLANE=0.00
		COLL_OFFSET_CROSSPLANE=0.00
		SCAN_DEVICE=STARCHECK
		ELECTROMETER=2D_ARRAY_INTERFACE
		DETECTOR=STARCHECK
		SCAN_CURVETYPE=CROSSPLANE_PROFILE
		SCAN_DEPTH=0.00
		SCAN_OFFAXIS_INPLANE=130.00
		SCAN_ANGLE=0.00
		SCAN_DIAGONAL=NOT_DIAGONAL
		MEAS_PRESET=TIME_PRESET
		MEAS_TIME=10.000
		MEAS_UNIT=GY
		PRESSURE=1013.25
		TEMPERATURE=20.00
		NORM_TEMPERATURE=20.00
		CORRECTION_FACTOR=1.0000
		CORRECTIONS=AIR_DENSITY_CORR;
		BEGIN_DATA
			-130.00		2.2137E-03
			-80.00		4.2415E-03
			-40.00		7.5620E-03
			40.00		6.9077E-03
			80.00		4.4583E-03
			130.00		2.3476E-03
		END_DATA
	END_SCAN  7
	BEGIN_SCAN  8
		TASK_NAME=MODE_INTERVAL
		PROGRAM=BeamAdjust 1.2
		MEAS_DATE=07-Oct-2010 13:59:19
		LINAC=A4
		MODALITY=X
		INPLANE_AXIS_DIR=TARGET_GUN
		CROSSPLANE_AXIS_DIR=LEFT_RIGHT
		DEPTH_AXIS_DIR=UP_DOWN
		ENERGY=6.00
		SSD=950.00
		WEDGE=None
		FIELD_INPLANE=100.00
		FIELD_CROSSPLANE=100.00
		FIELD_TYPE=RECTANGULAR
		GANTRY=0.00
		GANTRY_UPRIGHT_POSITION=0
		GANTRY_ROTATION=CW
		COLL_ANGLE=90.00
		COLL_OFFSET_INPLANE=0.00
		COLL_OFFSET_CROSSPLANE=0.00
		SCAN_DEVICE=STARCHECK
		ELECTROMETER=2D_ARRAY_INTERFACE
		DETECTOR=STARCHECK
		SCAN_CURVETYPE=INPLANE_PROFILE
		SCAN_DEPTH=0.00
		SCAN_OFFAXIS_CROSSPLANE=-130.00
		SCAN_ANGLE=0.00
		SCAN_DIAGONAL=NOT_DIAGONAL
		MEAS_PRESET=TIME_PRESET
		MEAS_TIME=10.000
		MEAS_UNIT=GY
		PRESSURE=1013.25
		TEMPERATURE=20.00
		NORM_TEMPERATURE=20.00
		CORRECTION_FACTOR=1.0000
		CORRECTIONS=AIR_DENSITY_CORR;
		BEGIN_DATA
			-130.00		2.7020E-03
			-125.00		3.4911E-03
			-120.00		3.0148E-03
			-115.00		3.7310E-03
			-110.00		3.7133E-03
			-105.00		3.9715E-03
			-100.00		4.3767E-03
			-95.00		5.0067E-03
			-90.00		4.7591E-03
			-85.00		4.6795E-03
			-80.00		4.6718E-03
			-75.00		5.1089E-03
			-70.00		4.9430E-03
			-65.00		5.3748E-03
			-60.00		5.2942E-03
			-55.00		6.8589E-03
			-50.00		4.7414E-03
			-45.00		4.8496E-03
			-40.00		5.3288E-03
			-35.00		6.0430E-03
			-30.00		6.0012E-03
			-25.00		5.7748E-03
			-20.00		5.8676E-03
			-15.00		5.2659E-03
			-10.00		6.0297E-03
			-5.00		6.7849E-03
			0.00		6.4484E-03
			5.00		6.7128E-03
			10.00		6.2271E-03
			15.00		6.1977E-03
			20.00		6.3535E-03
			25.00		5.4334E-03
			30.00		5.9022E-03
			35.00		5.8086E-03
			40.00		5.4513E-03
			45.00		5.3268E-03
			50.00		5.5055E-03
			55.00		4.9773E-03
			60.00		5.1208E-03
			65.00		4.4931E-03
			70.00		3.9894E-03
			75.00		4.2735E-03
			80.00		3.7231E-03
			85.00		4.2142E-03
			90.00		3.3035E-03
			95.00		3.4643E-03
			100.00		3.2341E-03
			105.00		2.4860E-03
			110.00		2.9422E-03
			115.00		2.4584E-03
			120.00		2.7639E-03
			125.00		2.8888E-03
			130.00		2.2137E-03
		END_DATA
	END_SCAN  8
	BEGIN_SCAN  9
		TASK_NAME=MODE_INTERVAL
		PROGRAM=BeamAdjust 1.2
		MEAS_DATE=07-Oct-2010 13:59:19
		LINAC=A4
		MODALITY=X
		INPLANE_AXIS_DIR=TARGET_GUN
		CROSSPLANE_AXIS_DIR=LEFT_RIGHT
		DEPTH_AXIS_DIR=UP_DOWN
		ENERGY=6.00
		SSD=950.00
		WEDGE=None
		FIELD_INPLANE=100.00
		FIELD_CROSSPLANE=100.00
		FIELD_TYPE=RECTANGULAR
		GANTRY=0.00
		GANTRY_UPRIGHT_POSITION=0
		GANTRY_ROTATION=CW
		COLL_ANGLE=90.00
		COLL_OFFSET_INPLANE=0.00
		COLL_OFFSET_CROSSPLANE=0.00
		SCAN_DEVICE=STARCHECK
		ELECTROMETER=2D_ARRAY_INTERFACE
		DETECTOR=STARCHECK
		SCAN_CURVETYPE=INPLANE_PROFILE
		SCAN_DEPTH=0.00
		SCAN_OFFAXIS_CROSSPLANE=-100.00
		SCAN_ANGLE=0.00
		SCAN_DIAGONAL=NOT_DIAGONAL
		MEAS_PRESET=TIME_PRESET
		MEAS_TIME=10.000
		MEAS_UNIT=GY
		PRESSURE=1013.25
		TEMPERATURE=20.00
		NORM_TEMPERATURE=20.00
		CORRECTION_FACTOR=1.0000
		CORRECTIONS=AIR_DENSITY_CORR;
		BEGIN_DATA
			-60.00		9.1871E-03
			-30.00		11.454E-03
			30.00		10.966E-03
			60.00		8.7071E-03
		END_DATA
	END_SCAN  9
	BEGIN_SCAN  10
		TASK_NAME=MODE_INTERVAL
		PROGRAM=BeamAdjust 1.2
		MEAS_DATE=07-Oct-2010 13:59:19
		LINAC=A4
		MODALITY=X
		INPLANE_AXIS_DIR=TARGET_GUN
		CROSSPLANE_AXIS_DIR=LEFT_RIGHT
		DEPTH_AXIS_DIR=UP_DOWN
		ENERGY=6.00
		SSD=950.00
		WEDGE=None
		FIELD_INPLANE=100.00
		FIELD_CROSSPLANE=100.00
		FIELD_TYPE=RECTANGULAR
		GANTRY=0.00
		GANTRY_UPRIGHT_POSITION=0
		GANTRY_ROTATION=CW
		COLL_ANGLE=90.00
		COLL_OFFSET_INPLANE=0.00
		COLL_OFFSET_CROSSPLANE=0.00
		SCAN_DEVICE=STARCHECK
		ELECTROMETER=2D_ARRAY_INTERFACE
		DETECTOR=STARCHECK
		SCAN_CURVETYPE=INPLANE_PROFILE
		SCAN_DEPTH=0.00
		SCAN_OFFAXIS_CROSSPLANE=-50.00
		SCAN_ANGLE=0.00
		SCAN_DIAGONAL=NOT_DIAGONAL
		MEAS_PRESET=TIME_PRESET
		MEAS_TIME=10.000
		MEAS_UNIT=GY
		PRESSURE=1013.25
		TEMPERATURE=20.00
		NORM_TEMPERATURE=20.00
		CORRECTION_FACTOR=1.0000
		CORRECTIONS=AIR_DENSITY_CORR;
		BEGIN_DATA
			-30.00		570.33E-03
			-15.00		568.63E-03
			15.00		563.42E-03
			30.00		554.69E-03
		END_DATA
	END_SCAN  10
	BEGIN_SCAN  11
		TASK_NAME=MODE_INTERVAL
		PROGRAM=BeamAdjust 1.2
		MEAS_DATE=07-Oct-2010 13:59:19
		LINAC=A4
		MODALITY=X
		INPLANE_AXIS_DIR=TARGET_GUN
		CROSSPLANE_AXIS_DIR=LEFT_RIGHT
		DEPTH_AXIS_DIR=UP_DOWN
		ENERGY=6.00
		SSD=950.00
		WEDGE=None
		FIELD_INPLANE=100.00
		FIELD_CROSSPLANE=100.00
		FIELD_TYPE=RECTANGULAR
		GANTRY=0.00
		GANTRY_UPRIGHT_POSITION=0
		GANTRY_ROTATION=CW
		COLL_ANGLE=90.00
		COLL_OFFSET_INPLANE=0.00
		COLL_OFFSET_CROSSPLANE=0.00
		SCAN_DEVICE=STARCHECK
		ELECTROMETER=2D_ARRAY_INTERFACE
		DETECTOR=STARCHECK
		SCAN_CURVETYPE=INPLANE_PROFILE
		SCAN_DEPTH=0.00
		SCAN_OFFAXIS_CROSSPLANE=0.00
		SCAN_ANGLE=0.00
		SCAN_DIAGONAL=NOT_DIAGONAL
		MEAS_PRESET=TIME_PRESET
		MEAS_TIME=10.000
		MEAS_UNIT=GY
		PRESSURE=1013.25
		TEMPERATURE=20.00
		NORM_TEMPERATURE=20.00
		CORRECTION_FACTOR=1.0000
		CORRECTIONS=AIR_DENSITY_CORR;
		BEGIN_DATA
			-126.00		9.1311E-03
			-123.00		9.0857E-03
			-120.00		10.543E-03
			-117.00		11.684E-03
			-114.00		11.954E-03
			-111.00		12.592E-03
			-108.00		13.827E-03
			-105.00		14.719E-03
			-102.00		16.168E-03
			-99.00		16.786E-03
			-96.00		18.153E-03
			-93.00		20.117E-03
			-90.00		21.808E-03
			-87.00		23.645E-03
			-84.00		25.953E-03
			-81.00		27.799E-03
			-78.00		30.755E-03
			-75.00		33.281E-03
			-72.00		36.900E-03
			-69.00		40.607E-03
			-66.00		46.483E-03
			-63.00		52.345E-03
			-60.00		62.611E-03
			-57.00		82.487E-03
			-54.00		131.62E-03
			-51.00		298.19E-03
			-48.00		553.14E-03
			-45.00		623.21E-03
			-42.00		643.51E-03
			-39.00		652.51E-03
			-36.00		658.12E-03
			-33.00		661.44E-03
			-30.00		665.45E-03
			-27.00		666.36E-03
			-24.00		666.34E-03
			-21.00		664.76E-03
			-18.00		671.50E-03
			-15.00		670.01E-03
			-12.00		671.05E-03
			-9.00		670.84E-03
			-6.00		668.67E-03
			0.00		668.44E-03
			6.00		672.80E-03
			9.00		671.91E-03
			12.00		670.52E-03
			15.00		668.27E-03
			18.00		664.39E-03
			21.00		664.20E-03
			24.00		661.01E-03
			27.00		662.71E-03
			30.00		658.02E-03
			33.00		656.05E-03
			36.00		654.06E-03
			39.00		642.82E-03
			42.00		630.67E-03
			45.00		596.89E-03
			48.00		437.00E-03
			51.00		190.23E-03
			54.00		99.100E-03
			57.00		69.774E-03
			60.00		56.443E-03
			63.00		48.528E-03
			66.00		43.829E-03
			69.00		39.488E-03
			72.00		34.758E-03
			75.00		31.570E-03
			78.00		28.414E-03
			81.00		26.923E-03
			84.00		24.674E-03
			87.00		22.603E-03
			90.00		20.932E-03
			93.00		19.449E-03
			96.00		18.326E-03
			99.00		16.724E-03
			102.00		14.620E-03
			105.00		13.519E-03
			108.00		13.645E-03
			111.00		12.827E-03
			114.00		11.677E-03
			117.00		10.575E-03
			120.00		10.310E-03
			123.00		9.7353E-03
			126.00		9.2137E-03
		END_DATA
	END_SCAN  11
	BEGIN_SCAN  12
		TASK_NAME=MODE_INTERVAL
		PROGRAM=BeamAdjust 1.2
		MEAS_DATE=07-Oct-2010 13:59:19
		LINAC=A4
		MODALITY=X
		INPLANE_AXIS_DIR=TARGET_GUN
		CROSSPLANE_AXIS_DIR=LEFT_RIGHT
		DEPTH_AXIS_DIR=UP_DOWN
		ENERGY=6.00
		SSD=950.00
		WEDGE=None
		FIELD_INPLANE=100.00
		FIELD_CROSSPLANE=100.00
		FIELD_TYPE=RECTANGULAR
		GANTRY=0.00
		GANTRY_UPRIGHT_POSITION=0
		GANTRY_ROTATION=CW
		COLL_ANGLE=90.00
		COLL_OFFSET_INPLANE=0.00
		COLL_OFFSET_CROSSPLANE=0.00
		SCAN_DEVICE=STARCHECK
		ELECTROMETER=2D_ARRAY_INTERFACE
		DETECTOR=STARCHECK
		SCAN_CURVETYPE=INPLANE_PROFILE
		SCAN_DEPTH=0.00
		SCAN_OFFAXIS_CROSSPLANE=50.00
		SCAN_ANGLE=0.00
		SCAN_DIAGONAL=NOT_DIAGONAL
		MEAS_PRESET=TIME_PRESET
		MEAS_TIME=10.000
		MEAS_UNIT=GY
		PRESSURE=1013.25
		TEMPERATURE=20.00
		NORM_TEMPERATURE=20.00
		CORRECTION_FACTOR=1.0000
		CORRECTIONS=AIR_DENSITY_CORR;
		BEGIN_DATA
			-30.00		142.19E-03
			-15.00		149.97E-03
			15.00		155.53E-03
			30.00		154.63E-03
		END_DATA
	END_SCAN  12
	BEGIN_SCAN  13
		TASK_NAME=MODE_INTERVAL
		PROGRAM=BeamAdjust 1.2
		MEAS_DATE=07-Oct-2010 13:59:19
		LINAC=A4
		MODALITY=X
		INPLANE_AXIS_DIR=TARGET_GUN
		CROSSPLANE_AXIS_DIR=LEFT_RIGHT
		DEPTH_AXIS_DIR=UP_DOWN
		ENERGY=6.00
		SSD=950.00
		WEDGE=None
		FIELD_INPLANE=100.00
		FIELD_CROSSPLANE=100.00
		FIELD_TYPE=RECTANGULAR
		GANTRY=0.00
		GANTRY_UPRIGHT_POSITION=0
		GANTRY_ROTATION=CW
		COLL_ANGLE=90.00
		COLL_OFFSET_INPLANE=0.00
		COLL_OFFSET_CROSSPLANE=0.00
		SCAN_DEVICE=STARCHECK
		ELECTROMETER=2D_ARRAY_INTERFACE
		DETECTOR=STARCHECK
		SCAN_CURVETYPE=INPLANE_PROFILE
		SCAN_DEPTH=0.00
		SCAN_OFFAXIS_CROSSPLANE=100.00
		SCAN_ANGLE=0.00
		SCAN_DIAGONAL=NOT_DIAGONAL
		MEAS_PRESET=TIME_PRESET
		MEAS_TIME=10.000
		MEAS_UNIT=GY
		PRESSURE=1013.25
		TEMPERATURE=20.00
		NORM_TEMPERATURE=20.00
		CORRECTION_FACTOR=1.0000
		CORRECTIONS=AIR_DENSITY_CORR;
		BEGIN_DATA
			-60.00		7.7449E-03
			-30.00		10.131E-03
			30.00		10.054E-03
			60.00		7.0543E-03
		END_DATA
	END_SCAN  13
	BEGIN_SCAN  14
		TASK_NAME=MODE_INTERVAL
		PROGRAM=BeamAdjust 1.2
		MEAS_DATE=07-Oct-2010 13:59:19
		LINAC=A4
		MODALITY=X
		INPLANE_AXIS_DIR=TARGET_GUN
		CROSSPLANE_AXIS_DIR=LEFT_RIGHT
		DEPTH_AXIS_DIR=UP_DOWN
		ENERGY=6.00
		SSD=950.00
		WEDGE=None
		FIELD_INPLANE=100.00
		FIELD_CROSSPLANE=100.00
		FIELD_TYPE=RECTANGULAR
		GANTRY=0.00
		GANTRY_UPRIGHT_POSITION=0
		GANTRY_ROTATION=CW
		COLL_ANGLE=90.00
		COLL_OFFSET_INPLANE=0.00
		COLL_OFFSET_CROSSPLANE=0.00
		SCAN_DEVICE=STARCHECK
		ELECTROMETER=2D_ARRAY_INTERFACE
		DETECTOR=STARCHECK
		SCAN_CURVETYPE=INPLANE_PROFILE
		SCAN_DEPTH=0.00
		SCAN_OFFAXIS_CROSSPLANE=130.00
		SCAN_ANGLE=0.00
		SCAN_DIAGONAL=NOT_DIAGONAL
		MEAS_PRESET=TIME_PRESET
		MEAS_TIME=10.000
		MEAS_UNIT=GY
		PRESSURE=1013.25
		TEMPERATURE=20.00
		NORM_TEMPERATURE=20.00
		CORRECTION_FACTOR=1.0000
		CORRECTIONS=AIR_DENSITY_CORR;
		BEGIN_DATA
			-130.00		1.8731E-03
			-125.00		2.6309E-03
			-120.00		2.4698E-03
			-115.00		3.0620E-03
			-110.00		3.0472E-03
			-105.00		2.6836E-03
			-100.00		3.0001E-03
			-95.00		2.8161E-03
			-90.00		2.7709E-03
			-85.00		3.5085E-03
			-80.00		3.3023E-03
			-75.00		3.3529E-03
			-70.00		3.8541E-03
			-65.00		3.9776E-03
			-60.00		4.7095E-03
			-55.00		4.0697E-03
			-50.00		4.0390E-03
			-45.00		5.4381E-03
			-40.00		5.0664E-03
			-35.00		5.1516E-03
			-30.00		5.0736E-03
			-25.00		4.7071E-03
			-20.00		5.2039E-03
			-15.00		5.4329E-03
			-10.00		4.6576E-03
			-5.00		5.4142E-03
			0.00		5.9582E-03
			5.00		5.6183E-03
			10.00		5.6825E-03
			15.00		5.0304E-03
			20.00		5.1263E-03
			25.00		5.8157E-03
			30.00		4.9658E-03
			35.00		5.0910E-03
			40.00		5.2650E-03
			45.00		4.5958E-03
			50.00		4.4623E-03
			55.00		4.9420E-03
			60.00		4.8318E-03
			65.00		3.8272E-03
			70.00		3.7829E-03
			75.00		4.1755E-03
			80.00		3.9670E-03
			85.00		3.8932E-03
			90.00		3.2220E-03
			95.00		3.6398E-03
			100.00		3.2556E-03
			105.00		2.8098E-03
			110.00		2.5600E-03
			115.00		2.6239E-03
			120.00		2.4218E-03
			125.00		2.2698E-03
			130.00		2.3476E-03
		END_DATA
	END_SCAN  14
	BEGIN_SCAN  15
		TASK_NAME=MODE_INTERVAL
		PROGRAM=BeamAdjust 1.2
		MEAS_DATE=07-Oct-2010 13:59:19
		LINAC=A4
		MODALITY=X
		INPLANE_AXIS_DIR=TARGET_GUN
		CROSSPLANE_AXIS_DIR=LEFT_RIGHT
		DEPTH_AXIS_DIR=UP_DOWN
		ENERGY=6.00
		SSD=950.00
		WEDGE=None
		FIELD_INPLANE=100.00
		FIELD_CROSSPLANE=100.00
		FIELD_TYPE=RECTANGULAR
		GANTRY=0.00
		GANTRY_UPRIGHT_POSITION=0
		GANTRY_ROTATION=CW
		COLL_ANGLE=90.00
		COLL_OFFSET_INPLANE=0.00
		COLL_OFFSET_CROSSPLANE=0.00
		SCAN_DEVICE=STARCHECK
		ELECTROMETER=2D_ARRAY_INTERFACE
		DETECTOR=STARCHECK
		SCAN_CURVETYPE=INPLANE_PROFILE
		SCAN_DEPTH=0.00
		SCAN_OFFAXIS_CROSSPLANE=0.00
		SCAN_ANGLE=0.00
		SCAN_DIAGONAL=FIRST_DIAGONAL
		MEAS_PRESET=TIME_PRESET
		MEAS_TIME=10.000
		MEAS_UNIT=GY
		PRESSURE=1013.25
		TEMPERATURE=20.00
		NORM_TEMPERATURE=20.00
		CORRECTION_FACTOR=1.0000
		CORRECTIONS=AIR_DENSITY_CORR;
		BEGIN_DATA
			-172.40		2.6556E-03
			-169.40		2.9128E-03
			-166.40		4.2048E-03
			-163.40		4.0451E-03
			-160.40		4.2847E-03
			-157.40		4.0379E-03
			-154.40		3.9211E-03
			-151.40		4.9359E-03
			-148.40		5.1627E-03
			-145.40		5.4384E-03
			-142.40		5.7591E-03
			-139.40		6.1452E-03
			-136.40		6.4801E-03
			-133.40		7.5406E-03
			-130.40		7.6270E-03
			-127.40		7.8615E-03
			-124.40		8.5274E-03
			-121.40		9.7297E-03
			-118.40		10.700E-03
			-115.40		11.353E-03
			-112.40		11.837E-03
			-109.40		13.818E-03
			-106.40		14.761E-03
			-103.40		15.596E-03
			-100.40		16.989E-03
			-97.40		18.975E-03
			-94.40		21.150E-03
			-91.40		23.862E-03
			-88.40		27.338E-03
			-85.40		30.811E-03
			-82.40		36.137E-03
			-79.40		45.437E-03
			-76.40		66.831E-03
			-73.40		146.11E-03
			-70.40		332.24E-03
			-67.40		501.51E-03
			-64.40		584.73E-03
			-61.40		616.36E-03
			-58.40		631.02E-03
			-55.40		640.59E-03
			-52.40		646.16E-03
			-49.40		650.95E-03
			-46.40		653.25E-03
			-43.40		655.45E-03
			-40.40		658.26E-03
			-37.40		662.58E-03
			-34.40		662.14E-03
			-31.40		663.51E-03
			-28.40		662.20E-03
			-25.40		665.24E-03
			-22.40		665.37E-03
			-19.40		666.51E-03
			-16.40		669.87E-03
			-13.40		671.46E-03
			0.00		668.44E-03
			13.40		671.25E-03
			16.40		667.20E-03
			19.40		667.03E-03
			22.40		665.84E-03
			25.40		664.84E-03
			28.40		663.46E-03
			31.40		660.92E-03
			34.40		657.52E-03
			37.40		659.70E-03
			40.40		656.81E-03
			43.40		653.62E-03
			46.40		651.04E-03
			49.40		643.98E-03
			52.40		637.47E-03
			55.40		622.39E-03
			58.40		600.67E-03
			61.40		547.06E-03
			64.40		397.49E-03
			67.40		192.67E-03
			70.40		80.595E-03
			73.40		49.732E-03
			76.40		38.039E-03
			79.40		32.174E-03
			82.40		27.588E-03
			85.40		23.955E-03
			88.40		22.338E-03
			91.40		19.716E-03
			94.40		17.881E-03
			97.40		16.295E-03
			100.40		14.552E-03
			103.40		13.907E-03
			106.40		12.963E-03
			109.40		11.697E-03
			112.40		9.8329E-03
			115.40		9.6370E-03
			118.40		8.6609E-03
			121.40		8.5419E-03
			124.40		7.8304E-03
			127.40		7.4867E-03
			130.40		6.6854E-03
			133.40		6.1278E-03
			136.40		5.2046E-03
			139.40		4.9482E-03
			142.40		4.7415E-03
			145.40		4.6391E-03
			148.40		4.5068E-03
			151.40		4.0167E-03
			154.40		4.3178E-03
			157.40		3.6172E-03
			160.40		2.5542E-03
			163.40		3.3092E-03
			166.40		3.0685E-03
			169.40		2.7963E-03
			172.40		3.0489E-03
		END_DATA
	END_SCAN  15
	BEGIN_SCAN  16
		TASK_NAME=MODE_INTERVAL
		PROGRAM=BeamAdjust 1.2
		MEAS_DATE=07-Oct-2010 13:59:19
		LINAC=A4
		MODALITY=X
		INPLANE_AXIS_DIR=GUN_TARGET
		CROSSPLANE_AXIS_DIR=LEFT_RIGHT
		DEPTH_AXIS_DIR=UP_DOWN
		ENERGY=6.00
		SSD=950.00
		WEDGE=None
		FIELD_INPLANE=100.00
		FIELD_CROSSPLANE=100.00
		FIELD_TYPE=RECTANGULAR
		GANTRY=0.00
		GANTRY_UPRIGHT_POSITION=0
		GANTRY_ROTATION=CW
		COLL_ANGLE=90.00
		COLL_OFFSET_INPLANE=0.00
		COLL_OFFSET_CROSSPLANE=0.00
		SCAN_DEVICE=STARCHECK
		ELECTROMETER=2D_ARRAY_INTERFACE
		DETECTOR=STARCHECK
		SCAN_CURVETYPE=INPLANE_PROFILE
		SCAN_DEPTH=0.00
		SCAN_OFFAXIS_CROSSPLANE=0.00
		SCAN_ANGLE=0.00
		SCAN_DIAGONAL=SECOND_DIAGONAL
		MEAS_PRESET=TIME_PRESET
		MEAS_TIME=10.000
		MEAS_UNIT=GY
		PRESSURE=1013.25
		TEMPERATURE=20.00
		NORM_TEMPERATURE=20.00
		CORRECTION_FACTOR=1.0000
		CORRECTIONS=AIR_DENSITY_CORR;
		BEGIN_DATA
			-172.40		2.6704E-03
			-169.40		2.7287E-03
			-166.40		3.0515E-03
			-163.40		2.9748E-03
			-160.40		3.3369E-03
			-157.40		3.8440E-03
			-154.40		4.7180E-03
			-151.40		4.5229E-03
			-148.40		4.6794E-03
			-145.40		4.7753E-03
			-142.40		5.3153E-03
			-139.40		5.3288E-03
			-136.40		5.4472E-03
			-133.40		6.2665E-03
			-130.40		6.5412E-03
			-127.40		7.3344E-03
			-124.40		7.9359E-03
			-121.40		8.4587E-03
			-118.40		8.9408E-03
			-115.40		9.6516E-03
			-112.40		10.711E-03
			-109.40		11.510E-03
			-106.40		12.819E-03
			-103.40		13.736E-03
			-100.40		15.466E-03
			-97.40		16.632E-03
			-94.40		18.002E-03
			-91.40		19.966E-03
			-88.40		21.714E-03
			-85.40		24.248E-03
			-82.40		27.891E-03
			-79.40		32.551E-03
			-76.40		39.187E-03
			-73.40		53.993E-03
			-70.40		95.493E-03
			-67.40		238.01E-03
			-64.40		433.18E-03
			-61.40		560.15E-03
			-58.40		611.34E-03
			-55.40		630.67E-03
			-52.40		645.00E-03
			-49.40		651.08E-03
			-46.40		655.07E-03
			-43.40		658.86E-03
			-40.40		660.97E-03
			-37.40		664.88E-03
			-34.40		664.65E-03
			-31.40		665.57E-03
			-28.40		668.18E-03
			-25.40		667.18E-03
			-22.40		665.17E-03
			-19.40		668.40E-03
			-16.40		669.67E-03
			-13.40		672.37E-03
			0.00		668.44E-03
			13.40		672.71E-03
			16.40		669.63E-03
			19.40		665.72E-03
			22.40		662.70E-03
			25.40		662.91E-03
			28.40		661.54E-03
			31.40		660.62E-03
			34.40		658.11E-03
			37.40		656.87E-03
			40.40		655.75E-03
			43.40		653.90E-03
			46.40		652.15E-03
			49.40		648.37E-03
			52.40		640.39E-03
			55.40		632.44E-03
			58.40		623.35E-03
			61.40		598.32E-03
			64.40		536.28E-03
			67.40		404.95E-03
			70.40		224.91E-03
			73.40		95.878E-03
			76.40		55.012E-03
			79.40		40.198E-03
			82.40		33.603E-03
			85.40		29.428E-03
			88.40		26.135E-03
			91.40		23.356E-03
			94.40		20.891E-03
			97.40		18.987E-03
			100.40		16.221E-03
			103.40		15.082E-03
			106.40		14.126E-03
			109.40		12.388E-03
			112.40		11.576E-03
			115.40		10.891E-03
			118.40		10.475E-03
			121.40		9.1055E-03
			124.40		8.2321E-03
			127.40		7.7678E-03
			130.40		7.7115E-03
			133.40		7.1850E-03
			136.40		6.2406E-03
			139.40		6.3366E-03
			142.40		5.9537E-03
			145.40		5.7000E-03
			148.40		5.1358E-03
			151.40		4.4463E-03
			154.40		4.4118E-03
			157.40		3.9329E-03
			160.40		4.5804E-03
			163.40		4.2414E-03
			166.40		3.7819E-03
			169.40		3.0317E-03
			172.40		2.6362E-03
		END_DATA
	END_SCAN  16
END_SCAN_DATA
