BEGIN_SCAN_DATA
	FORMAT=CC-Export V1.9                  
	FILE_CREATION_DATE=07-Oct-2010 14:00:02
	LAST_MODIFIED=07-Oct-2010 14:00:02
	BEGIN_SCAN  1
		TASK_NAME=MODE_INTERVAL
		PROGRAM=BeamAdjust 1.2
		MEAS_DATE=07-Oct-2010 14:00:02
		LINAC=A4
		MODALITY=X
		INPLANE_AXIS_DIR=TARGET_GUN
		CROSSPLANE_AXIS_DIR=LEFT_RIGHT
		DEPTH_AXIS_DIR=UP_DOWN
		ENERGY=6.00
		SSD=950.00
		WEDGE=None
		FIELD_INPLANE=100.00
		FIELD_CROSSPLANE=100.00
		FIELD_TYPE=RECTANGULAR
		GANTRY=0.00
		GANTRY_UPRIGHT_POSITION=0
		GANTRY_ROTATION=CW
		COLL_ANGLE=90.00
		COLL_OFFSET_INPLANE=0.00
		COLL_OFFSET_CROSSPLANE=0.00
		SCAN_DEVICE=STARCHECK
		ELECTROMETER=2D_ARRAY_INTERFACE
		DETECTOR=STARCHECK
		SCAN_CURVETYPE=CROSSPLANE_PROFILE
		SCAN_DEPTH=0.00
		SCAN_OFFAXIS_INPLANE=-130.00
		SCAN_ANGLE=0.00
		SCAN_DIAGONAL=NOT_DIAGONAL
		MEAS_PRESET=TIME_PRESET
		MEAS_TIME=10.000
		MEAS_UNIT=GY
		PRESSURE=1013.25
		TEMPERATURE=20.00
		NORM_TEMPERATURE=20.00
		CORRECTION_FACTOR=1.0000
		CORRECTIONS=AIR_DENSITY_CORR;
		BEGIN_DATA
			-130.00		2.4361E-03
			-80.00		4.5422E-03
			-40.00		7.2623E-03
			40.00		6.7252E-03
			80.00		3.8190E-03
			130.00		2.0092E-03
		END_DATA
	END_SCAN  1
	BEGIN_SCAN  2
		TASK_NAME=MODE_INTERVAL
		PROGRAM=BeamAdjust 1.2
		MEAS_DATE=07-Oct-2010 14:00:02
		LINAC=A4
		MODALITY=X
		INPLANE_AXIS_DIR=TARGET_GUN
		CROSSPLANE_AXIS_DIR=LEFT_RIGHT
		DEPTH_AXIS_DIR=UP_DOWN
		ENERGY=6.00
		SSD=950.00
		WEDGE=None
		FIELD_INPLANE=100.00
		FIELD_CROSSPLANE=100.00
		FIELD_TYPE=RECTANGULAR
		GANTRY=0.00
		GANTRY_UPRIGHT_POSITION=0
		GANTRY_ROTATION=CW
		COLL_ANGLE=90.00
		COLL_OFFSET_INPLANE=0.00
		COLL_OFFSET_CROSSPLANE=0.00
		SCAN_DEVICE=STARCHECK
		ELECTROMETER=2D_ARRAY_INTERFACE
		DETECTOR=STARCHECK
		SCAN_CURVETYPE=CROSSPLANE_PROFILE
		SCAN_DEPTH=0.00
		SCAN_OFFAXIS_INPLANE=-100.00
		SCAN_ANGLE=0.00
		SCAN_DIAGONAL=NOT_DIAGONAL
		MEAS_PRESET=TIME_PRESET
		MEAS_TIME=10.000
		MEAS_UNIT=GY
		PRESSURE=1013.25
		TEMPERATURE=20.00
		NORM_TEMPERATURE=20.00
		CORRECTION_FACTOR=1.0000
		CORRECTIONS=AIR_DENSITY_CORR;
		BEGIN_DATA
			-60.00		10.996E-03
			-30.00		14.590E-03
			30.00		14.744E-03
			60.00		9.5000E-03
		END_DATA
	END_SCAN  2
	BEGIN_SCAN  3
		TASK_NAME=MODE_INTERVAL
		PROGRAM=BeamAdjust 1.2
		MEAS_DATE=07-Oct-2010 14:00:02
		LINAC=A4
		MODALITY=X
		INPLANE_AXIS_DIR=TARGET_GUN
		CROSSPLANE_AXIS_DIR=LEFT_RIGHT
		DEPTH_AXIS_DIR=UP_DOWN
		ENERGY=6.00
		SSD=950.00
		WEDGE=None
		FIELD_INPLANE=100.00
		FIELD_CROSSPLANE=100.00
		FIELD_TYPE=RECTANGULAR
		GANTRY=0.00
		GANTRY_UPRIGHT_POSITION=0
		GANTRY_ROTATION=CW
		COLL_ANGLE=90.00
		COLL_OFFSET_INPLANE=0.00
		COLL_OFFSET_CROSSPLANE=0.00
		SCAN_DEVICE=STARCHECK
		ELECTROMETER=2D_ARRAY_INTERFACE
		DETECTOR=STARCHECK
		SCAN_CURVETYPE=CROSSPLANE_PROFILE
		SCAN_DEPTH=0.00
		SCAN_OFFAXIS_INPLANE=-50.00
		SCAN_ANGLE=0.00
		SCAN_DIAGONAL=NOT_DIAGONAL
		MEAS_PRESET=TIME_PRESET
		MEAS_TIME=10.000
		MEAS_UNIT=GY
		PRESSURE=1013.25
		TEMPERATURE=20.00
		NORM_TEMPERATURE=20.00
		CORRECTION_FACTOR=1.0000
		CORRECTIONS=AIR_DENSITY_CORR;
		BEGIN_DATA
			-30.00		387.72E-03
			-15.00		364.35E-03
			15.00		385.56E-03
			30.00		378.63E-03
		END_DATA
	END_SCAN  3
	BEGIN_SCAN  4
		TASK_NAME=MODE_INTERVAL
		PROGRAM=BeamAdjust 1.2
		MEAS_DATE=07-Oct-2010 14:00:02
		LINAC=A4
		MODALITY=X
		INPLANE_AXIS_DIR=TARGET_GUN
		CROSSPLANE_AXIS_DIR=LEFT_RIGHT
		DEPTH_AXIS_DIR=UP_DOWN
		ENERGY=6.00
		SSD=950.00
		WEDGE=None
		FIELD_INPLANE=100.00
		FIELD_CROSSPLANE=100.00
		FIELD_TYPE=RECTANGULAR
		GANTRY=0.00
		GANTRY_UPRIGHT_POSITION=0
		GANTRY_ROTATION=CW
		COLL_ANGLE=90.00
		COLL_OFFSET_INPLANE=0.00
		COLL_OFFSET_CROSSPLANE=0.00
		SCAN_DEVICE=STARCHECK
		ELECTROMETER=2D_ARRAY_INTERFACE
		DETECTOR=STARCHECK
		SCAN_CURVETYPE=CROSSPLANE_PROFILE
		SCAN_DEPTH=0.00
		SCAN_OFFAXIS_INPLANE=0.00
		SCAN_ANGLE=0.00
		SCAN_DIAGONAL=NOT_DIAGONAL
		MEAS_PRESET=TIME_PRESET
		MEAS_TIME=10.000
		MEAS_UNIT=GY
		PRESSURE=1013.25
		TEMPERATURE=20.00
		NORM_TEMPERATURE=20.00
		CORRECTION_FACTOR=1.0000
		CORRECTIONS=AIR_DENSITY_CORR;
		BEGIN_DATA
			-126.00		7.2169E-03
			-123.00		8.2014E-03
			-120.00		8.5214E-03
			-117.00		9.2494E-03
			-114.00		9.7559E-03
			-111.00		10.276E-03
			-108.00		11.349E-03
			-105.00		12.501E-03
			-102.00		13.268E-03
			-99.00		14.249E-03
			-96.00		15.269E-03
			-93.00		16.821E-03
			-90.00		18.240E-03
			-87.00		19.771E-03
			-84.00		22.205E-03
			-81.00		23.906E-03
			-78.00		26.891E-03
			-75.00		30.319E-03
			-72.00		33.782E-03
			-69.00		38.885E-03
			-66.00		45.424E-03
			-63.00		54.571E-03
			-60.00		70.330E-03
			-57.00		108.43E-03
			-54.00		258.17E-03
			-51.00		539.09E-03
			-48.00		616.68E-03
			-45.00		635.87E-03
			-42.00		645.42E-03
			-39.00		654.19E-03
			-36.00		658.46E-03
			-33.00		657.61E-03
			-30.00		658.66E-03
			-27.00		661.52E-03
			-24.00		663.65E-03
			-21.00		663.96E-03
			-18.00		670.04E-03
			-15.00		669.61E-03
			-12.00		667.55E-03
			-9.00		669.63E-03
			-6.00		668.70E-03
			0.00		668.86E-03
			6.00		672.32E-03
			9.00		670.93E-03
			12.00		667.65E-03
			15.00		666.44E-03
			18.00		665.93E-03
			21.00		664.55E-03
			24.00		661.06E-03
			27.00		664.55E-03
			30.00		662.42E-03
			33.00		658.28E-03
			36.00		652.80E-03
			39.00		642.16E-03
			42.00		619.31E-03
			45.00		545.50E-03
			48.00		264.42E-03
			51.00		107.81E-03
			54.00		70.520E-03
			57.00		54.603E-03
			60.00		45.066E-03
			63.00		38.917E-03
			66.00		34.077E-03
			69.00		29.847E-03
			72.00		27.308E-03
			75.00		24.263E-03
			78.00		21.847E-03
			81.00		19.869E-03
			84.00		18.294E-03
			87.00		16.447E-03
			90.00		15.609E-03
			93.00		13.888E-03
			96.00		12.623E-03
			99.00		12.089E-03
			102.00		11.134E-03
			105.00		10.120E-03
			108.00		9.9307E-03
			111.00		8.5192E-03
			114.00		8.2687E-03
			117.00		7.9178E-03
			120.00		6.9222E-03
			123.00		6.9204E-03
			126.00		6.9391E-03
		END_DATA
	END_SCAN  4
	BEGIN_SCAN  5
		TASK_NAME=MODE_INTERVAL
		PROGRAM=BeamAdjust 1.2
		MEAS_DATE=07-Oct-2010 14:00:02
		LINAC=A4
		MODALITY=X
		INPLANE_AXIS_DIR=TARGET_GUN
		CROSSPLANE_AXIS_DIR=LEFT_RIGHT
		DEPTH_AXIS_DIR=UP_DOWN
		ENERGY=6.00
		SSD=950.00
		WEDGE=None
		FIELD_INPLANE=100.00
		FIELD_CROSSPLANE=100.00
		FIELD_TYPE=RECTANGULAR
		GANTRY=0.00
		GANTRY_UPRIGHT_POSITION=0
		GANTRY_ROTATION=CW
		COLL_ANGLE=90.00
		COLL_OFFSET_INPLANE=0.00
		COLL_OFFSET_CROSSPLANE=0.00
		SCAN_DEVICE=STARCHECK
		ELECTROMETER=2D_ARRAY_INTERFACE
		DETECTOR=STARCHECK
		SCAN_CURVETYPE=CROSSPLANE_PROFILE
		SCAN_DEPTH=0.00
		SCAN_OFFAXIS_INPLANE=50.00
		SCAN_ANGLE=0.00
		SCAN_DIAGONAL=NOT_DIAGONAL
		MEAS_PRESET=TIME_PRESET
		MEAS_TIME=10.000
		MEAS_UNIT=GY
		PRESSURE=1013.25
		TEMPERATURE=20.00
		NORM_TEMPERATURE=20.00
		CORRECTION_FACTOR=1.0000
		CORRECTIONS=AIR_DENSITY_CORR;
		BEGIN_DATA
			-30.00		269.71E-03
			-15.00		289.39E-03
			15.00		262.46E-03
			30.00		253.28E-03
		END_DATA
	END_SCAN  5
	BEGIN_SCAN  6
		TASK_NAME=MODE_INTERVAL
		PROGRAM=BeamAdjust 1.2
		MEAS_DATE=07-Oct-2010 14:00:02
		LINAC=A4
		MODALITY=X
		INPLANE_AXIS_DIR=TARGET_GUN
		CROSSPLANE_AXIS_DIR=LEFT_RIGHT
		DEPTH_AXIS_DIR=UP_DOWN
		ENERGY=6.00
		SSD=950.00
		WEDGE=None
		FIELD_INPLANE=100.00
		FIELD_CROSSPLANE=100.00
		FIELD_TYPE=RECTANGULAR
		GANTRY=0.00
		GANTRY_UPRIGHT_POSITION=0
		GANTRY_ROTATION=CW
		COLL_ANGLE=90.00
		COLL_OFFSET_INPLANE=0.00
		COLL_OFFSET_CROSSPLANE=0.00
		SCAN_DEVICE=STARCHECK
		ELECTROMETER=2D_ARRAY_INTERFACE
		DETECTOR=STARCHECK
		SCAN_CURVETYPE=CROSSPLANE_PROFILE
		SCAN_DEPTH=0.00
		SCAN_OFFAXIS_INPLANE=100.00
		SCAN_ANGLE=0.00
		SCAN_DIAGONAL=NOT_DIAGONAL
		MEAS_PRESET=TIME_PRESET
		MEAS_TIME=10.000
		MEAS_UNIT=GY
		PRESSURE=1013.25
		TEMPERATURE=20.00
		NORM_TEMPERATURE=20.00
		CORRECTION_FACTOR=1.0000
		CORRECTIONS=AIR_DENSITY_CORR;
		BEGIN_DATA
			-60.00		10.731E-03
			-30.00		15.023E-03
			30.00		14.903E-03
			60.00		8.4586E-03
		END_DATA
	END_SCAN  6
	BEGIN_SCAN  7
		TASK_NAME=MODE_INTERVAL
		PROGRAM=BeamAdjust 1.2
		MEAS_DATE=07-Oct-2010 14:00:02
		LINAC=A4
		MODALITY=X
		INPLANE_AXIS_DIR=TARGET_GUN
		CROSSPLANE_AXIS_DIR=LEFT_RIGHT
		DEPTH_AXIS_DIR=UP_DOWN
		ENERGY=6.00
		SSD=950.00
		WEDGE=None
		FIELD_INPLANE=100.00
		FIELD_CROSSPLANE=100.00
		FIELD_TYPE=RECTANGULAR
		GANTRY=0.00
		GANTRY_UPRIGHT_POSITION=0
		GANTRY_ROTATION=CW
		COLL_ANGLE=90.00
		COLL_OFFSET_INPLANE=0.00
		COLL_OFFSET_CROSSPLANE=0.00
		SCAN_DEVICE=STARCHECK
		ELECTROMETER=2D_ARRAY_INTERFACE
		DETECTOR=STARCHECK
		SCAN_CURVETYPE=CROSSPLANE_PROFILE
		SCAN_DEPTH=0.00
		SCAN_OFFAXIS_INPLANE=130.00
		SCAN_ANGLE=0.00
		SCAN_DIAGONAL=NOT_DIAGONAL
		MEAS_PRESET=TIME_PRESET
		MEAS_TIME=10.000
		MEAS_UNIT=GY
		PRESSURE=1013.25
		TEMPERATURE=20.00
		NORM_TEMPERATURE=20.00
		CORRECTION_FACTOR=1.0000
		CORRECTIONS=AIR_DENSITY_CORR;
		BEGIN_DATA
			-130.00		2.3782E-03
			-80.00		5.0565E-03
			-40.00		7.4199E-03
			40.00		7.3940E-03
			80.00		4.0209E-03
			130.00		2.3062E-03
		END_DATA
	END_SCAN  7
	BEGIN_SCAN  8
		TASK_NAME=MODE_INTERVAL
		PROGRAM=BeamAdjust 1.2
		MEAS_DATE=07-Oct-2010 14:00:02
		LINAC=A4
		MODALITY=X
		INPLANE_AXIS_DIR=TARGET_GUN
		CROSSPLANE_AXIS_DIR=LEFT_RIGHT
		DEPTH_AXIS_DIR=UP_DOWN
		ENERGY=6.00
		SSD=950.00
		WEDGE=None
		FIELD_INPLANE=100.00
		FIELD_CROSSPLANE=100.00
		FIELD_TYPE=RECTANGULAR
		GANTRY=0.00
		GANTRY_UPRIGHT_POSITION=0
		GANTRY_ROTATION=CW
		COLL_ANGLE=90.00
		COLL_OFFSET_INPLANE=0.00
		COLL_OFFSET_CROSSPLANE=0.00
		SCAN_DEVICE=STARCHECK
		ELECTROMETER=2D_ARRAY_INTERFACE
		DETECTOR=STARCHECK
		SCAN_CURVETYPE=INPLANE_PROFILE
		SCAN_DEPTH=0.00
		SCAN_OFFAXIS_CROSSPLANE=-130.00
		SCAN_ANGLE=0.00
		SCAN_DIAGONAL=NOT_DIAGONAL
		MEAS_PRESET=TIME_PRESET
		MEAS_TIME=10.000
		MEAS_UNIT=GY
		PRESSURE=1013.25
		TEMPERATURE=20.00
		NORM_TEMPERATURE=20.00
		CORRECTION_FACTOR=1.0000
		CORRECTIONS=AIR_DENSITY_CORR;
		BEGIN_DATA
			-130.00		2.4361E-03
			-125.00		2.8839E-03
			-120.00		3.5914E-03
			-115.00		3.4633E-03
			-110.00		3.1480E-03
			-105.00		3.6678E-03
			-100.00		4.2413E-03
			-95.00		4.5104E-03
			-90.00		4.6851E-03
			-85.00		4.7948E-03
			-80.00		4.6035E-03
			-75.00		4.9630E-03
			-70.00		5.1536E-03
			-65.00		5.4222E-03
			-60.00		5.6520E-03
			-55.00		6.5963E-03
			-50.00		5.7389E-03
			-45.00		5.2549E-03
			-40.00		5.4691E-03
			-35.00		6.0903E-03
			-30.00		6.0057E-03
			-25.00		5.8075E-03
			-20.00		5.7698E-03
			-15.00		5.6103E-03
			-10.00		5.9265E-03
			-5.00		6.4585E-03
			0.00		6.7265E-03
			5.00		6.9802E-03
			10.00		6.3026E-03
			15.00		5.9677E-03
			20.00		6.9136E-03
			25.00		5.6597E-03
			30.00		5.5587E-03
			35.00		5.7162E-03
			40.00		5.2792E-03
			45.00		5.0781E-03
			50.00		5.2913E-03
			55.00		4.7767E-03
			60.00		4.5880E-03
			65.00		4.0045E-03
			70.00		4.0117E-03
			75.00		4.3746E-03
			80.00		3.7736E-03
			85.00		3.7198E-03
			90.00		4.0744E-03
			95.00		3.4987E-03
			100.00		3.3088E-03
			105.00		2.8807E-03
			110.00		3.0302E-03
			115.00		2.7198E-03
			120.00		2.8471E-03
			125.00		2.7031E-03
			130.00		2.3782E-03
		END_DATA
	END_SCAN  8
	BEGIN_SCAN  9
		TASK_NAME=MODE_INTERVAL
		PROGRAM=BeamAdjust 1.2
		MEAS_DATE=07-Oct-2010 14:00:02
		LINAC=A4
		MODALITY=X
		INPLANE_AXIS_DIR=TARGET_GUN
		CROSSPLANE_AXIS_DIR=LEFT_RIGHT
		DEPTH_AXIS_DIR=UP_DOWN
		ENERGY=6.00
		SSD=950.00
		WEDGE=None
		FIELD_INPLANE=100.00
		FIELD_CROSSPLANE=100.00
		FIELD_TYPE=RECTANGULAR
		GANTRY=0.00
		GANTRY_UPRIGHT_POSITION=0
		GANTRY_ROTATION=CW
		COLL_ANGLE=90.00
		COLL_OFFSET_INPLANE=0.00
		COLL_OFFSET_CROSSPLANE=0.00
		SCAN_DEVICE=STARCHECK
		ELECTROMETER=2D_ARRAY_INTERFACE
		DETECTOR=STARCHECK
		SCAN_CURVETYPE=INPLANE_PROFILE
		SCAN_DEPTH=0.00
		SCAN_OFFAXIS_CROSSPLANE=-100.00
		SCAN_ANGLE=0.00
		SCAN_DIAGONAL=NOT_DIAGONAL
		MEAS_PRESET=TIME_PRESET
		MEAS_TIME=10.000
		MEAS_UNIT=GY
		PRESSURE=1013.25
		TEMPERATURE=20.00
		NORM_TEMPERATURE=20.00
		CORRECTION_FACTOR=1.0000
		CORRECTIONS=AIR_DENSITY_CORR;
		BEGIN_DATA
			-60.00		9.1161E-03
			-30.00		11.380E-03
			30.00		11.238E-03
			60.00		8.9333E-03
		END_DATA
	END_SCAN  9
	BEGIN_SCAN  10
		TASK_NAME=MODE_INTERVAL
		PROGRAM=BeamAdjust 1.2
		MEAS_DATE=07-Oct-2010 14:00:02
		LINAC=A4
		MODALITY=X
		INPLANE_AXIS_DIR=TARGET_GUN
		CROSSPLANE_AXIS_DIR=LEFT_RIGHT
		DEPTH_AXIS_DIR=UP_DOWN
		ENERGY=6.00
		SSD=950.00
		WEDGE=None
		FIELD_INPLANE=100.00
		FIELD_CROSSPLANE=100.00
		FIELD_TYPE=RECTANGULAR
		GANTRY=0.00
		GANTRY_UPRIGHT_POSITION=0
		GANTRY_ROTATION=CW
		COLL_ANGLE=90.00
		COLL_OFFSET_INPLANE=0.00
		COLL_OFFSET_CROSSPLANE=0.00
		SCAN_DEVICE=STARCHECK
		ELECTROMETER=2D_ARRAY_INTERFACE
		DETECTOR=STARCHECK
		SCAN_CURVETYPE=INPLANE_PROFILE
		SCAN_DEPTH=0.00
		SCAN_OFFAXIS_CROSSPLANE=-50.00
		SCAN_ANGLE=0.00
		SCAN_DIAGONAL=NOT_DIAGONAL
		MEAS_PRESET=TIME_PRESET
		MEAS_TIME=10.000
		MEAS_UNIT=GY
		PRESSURE=1013.25
		TEMPERATURE=20.00
		NORM_TEMPERATURE=20.00
		CORRECTION_FACTOR=1.0000
		CORRECTIONS=AIR_DENSITY_CORR;
		BEGIN_DATA
			-30.00		582.98E-03
			-15.00		581.83E-03
			15.00		577.43E-03
			30.00		569.24E-03
		END_DATA
	END_SCAN  10
	BEGIN_SCAN  11
		TASK_NAME=MODE_INTERVAL
		PROGRAM=BeamAdjust 1.2
		MEAS_DATE=07-Oct-2010 14:00:02
		LINAC=A4
		MODALITY=X
		INPLANE_AXIS_DIR=TARGET_GUN
		CROSSPLANE_AXIS_DIR=LEFT_RIGHT
		DEPTH_AXIS_DIR=UP_DOWN
		ENERGY=6.00
		SSD=950.00
		WEDGE=None
		FIELD_INPLANE=100.00
		FIELD_CROSSPLANE=100.00
		FIELD_TYPE=RECTANGULAR
		GANTRY=0.00
		GANTRY_UPRIGHT_POSITION=0
		GANTRY_ROTATION=CW
		COLL_ANGLE=90.00
		COLL_OFFSET_INPLANE=0.00
		COLL_OFFSET_CROSSPLANE=0.00
		SCAN_DEVICE=STARCHECK
		ELECTROMETER=2D_ARRAY_INTERFACE
		DETECTOR=STARCHECK
		SCAN_CURVETYPE=INPLANE_PROFILE
		SCAN_DEPTH=0.00
		SCAN_OFFAXIS_CROSSPLANE=0.00
		SCAN_ANGLE=0.00
		SCAN_DIAGONAL=NOT_DIAGONAL
		MEAS_PRESET=TIME_PRESET
		MEAS_TIME=10.000
		MEAS_UNIT=GY
		PRESSURE=1013.25
		TEMPERATURE=20.00
		NORM_TEMPERATURE=20.00
		CORRECTION_FACTOR=1.0000
		CORRECTIONS=AIR_DENSITY_CORR;
		BEGIN_DATA
			-126.00		9.3078E-03
			-123.00		8.9405E-03
			-120.00		10.579E-03
			-117.00		11.702E-03
			-114.00		11.923E-03
			-111.00		12.753E-03
			-108.00		13.889E-03
			-105.00		14.909E-03
			-102.00		16.642E-03
			-99.00		16.768E-03
			-96.00		18.589E-03
			-93.00		20.533E-03
			-90.00		21.880E-03
			-87.00		23.678E-03
			-84.00		25.709E-03
			-81.00		28.382E-03
			-78.00		30.685E-03
			-75.00		33.219E-03
			-72.00		36.598E-03
			-69.00		40.491E-03
			-66.00		45.856E-03
			-63.00		52.743E-03
			-60.00		62.688E-03
			-57.00		82.053E-03
			-54.00		131.69E-03
			-51.00		297.45E-03
			-48.00		552.55E-03
			-45.00		622.89E-03
			-42.00		643.27E-03
			-39.00		652.44E-03
			-36.00		657.69E-03
			-33.00		661.04E-03
			-30.00		665.26E-03
			-27.00		666.26E-03
			-24.00		665.99E-03
			-21.00		665.44E-03
			-18.00		671.46E-03
			-15.00		669.88E-03
			-12.00		671.41E-03
			-9.00		671.74E-03
			-6.00		668.82E-03
			0.00		668.86E-03
			6.00		673.09E-03
			9.00		672.44E-03
			12.00		671.49E-03
			15.00		669.07E-03
			18.00		665.01E-03
			21.00		665.00E-03
			24.00		661.61E-03
			27.00		662.81E-03
			30.00		659.20E-03
			33.00		656.60E-03
			36.00		653.90E-03
			39.00		643.09E-03
			42.00		631.47E-03
			45.00		598.43E-03
			48.00		438.79E-03
			51.00		191.13E-03
			54.00		99.381E-03
			57.00		70.203E-03
			60.00		56.812E-03
			63.00		48.882E-03
			66.00		43.539E-03
			69.00		38.756E-03
			72.00		35.722E-03
			75.00		31.685E-03
			78.00		28.405E-03
			81.00		26.160E-03
			84.00		24.456E-03
			87.00		22.600E-03
			90.00		20.921E-03
			93.00		19.370E-03
			96.00		18.051E-03
			99.00		16.667E-03
			102.00		14.812E-03
			105.00		13.903E-03
			108.00		13.742E-03
			111.00		12.260E-03
			114.00		12.276E-03
			117.00		10.802E-03
			120.00		10.253E-03
			123.00		9.7487E-03
			126.00		8.8553E-03
		END_DATA
	END_SCAN  11
	BEGIN_SCAN  12
		TASK_NAME=MODE_INTERVAL
		PROGRAM=BeamAdjust 1.2
		MEAS_DATE=07-Oct-2010 14:00:02
		LINAC=A4
		MODALITY=X
		INPLANE_AXIS_DIR=TARGET_GUN
		CROSSPLANE_AXIS_DIR=LEFT_RIGHT
		DEPTH_AXIS_DIR=UP_DOWN
		ENERGY=6.00
		SSD=950.00
		WEDGE=None
		FIELD_INPLANE=100.00
		FIELD_CROSSPLANE=100.00
		FIELD_TYPE=RECTANGULAR
		GANTRY=0.00
		GANTRY_UPRIGHT_POSITION=0
		GANTRY_ROTATION=CW
		COLL_ANGLE=90.00
		COLL_OFFSET_INPLANE=0.00
		COLL_OFFSET_CROSSPLANE=0.00
		SCAN_DEVICE=STARCHECK
		ELECTROMETER=2D_ARRAY_INTERFACE
		DETECTOR=STARCHECK
		SCAN_CURVETYPE=INPLANE_PROFILE
		SCAN_DEPTH=0.00
		SCAN_OFFAXIS_CROSSPLANE=50.00
		SCAN_ANGLE=0.00
		SCAN_DIAGONAL=NOT_DIAGONAL
		MEAS_PRESET=TIME_PRESET
		MEAS_TIME=10.000
		MEAS_UNIT=GY
		PRESSURE=1013.25
		TEMPERATURE=20.00
		NORM_TEMPERATURE=20.00
		CORRECTION_FACTOR=1.0000
		CORRECTIONS=AIR_DENSITY_CORR;
		BEGIN_DATA
			-30.00		127.74E-03
			-15.00		134.89E-03
			15.00		139.56E-03
			30.00		138.36E-03
		END_DATA
	END_SCAN  12
	BEGIN_SCAN  13
		TASK_NAME=MODE_INTERVAL
		PROGRAM=BeamAdjust 1.2
		MEAS_DATE=07-Oct-2010 14:00:02
		LINAC=A4
		MODALITY=X
		INPLANE_AXIS_DIR=TARGET_GUN
		CROSSPLANE_AXIS_DIR=LEFT_RIGHT
		DEPTH_AXIS_DIR=UP_DOWN
		ENERGY=6.00
		SSD=950.00
		WEDGE=None
		FIELD_INPLANE=100.00
		FIELD_CROSSPLANE=100.00
		FIELD_TYPE=RECTANGULAR
		GANTRY=0.00
		GANTRY_UPRIGHT_POSITION=0
		GANTRY_ROTATION=CW
		COLL_ANGLE=90.00
		COLL_OFFSET_INPLANE=0.00
		COLL_OFFSET_CROSSPLANE=0.00
		SCAN_DEVICE=STARCHECK
		ELECTROMETER=2D_ARRAY_INTERFACE
		DETECTOR=STARCHECK
		SCAN_CURVETYPE=INPLANE_PROFILE
		SCAN_DEPTH=0.00
		SCAN_OFFAXIS_CROSSPLANE=100.00
		SCAN_ANGLE=0.00
		SCAN_DIAGONAL=NOT_DIAGONAL
		MEAS_PRESET=TIME_PRESET
		MEAS_TIME=10.000
		MEAS_UNIT=GY
		PRESSURE=1013.25
		TEMPERATURE=20.00
		NORM_TEMPERATURE=20.00
		CORRECTION_FACTOR=1.0000
		CORRECTIONS=AIR_DENSITY_CORR;
		BEGIN_DATA
			-60.00		7.6810E-03
			-30.00		9.4887E-03
			30.00		9.6313E-03
			60.00		7.5418E-03
		END_DATA
	END_SCAN  13
	BEGIN_SCAN  14
		TASK_NAME=MODE_INTERVAL
		PROGRAM=BeamAdjust 1.2
		MEAS_DATE=07-Oct-2010 14:00:02
		LINAC=A4
		MODALITY=X
		INPLANE_AXIS_DIR=TARGET_GUN
		CROSSPLANE_AXIS_DIR=LEFT_RIGHT
		DEPTH_AXIS_DIR=UP_DOWN
		ENERGY=6.00
		SSD=950.00
		WEDGE=None
		FIELD_INPLANE=100.00
		FIELD_CROSSPLANE=100.00
		FIELD_TYPE=RECTANGULAR
		GANTRY=0.00
		GANTRY_UPRIGHT_POSITION=0
		GANTRY_ROTATION=CW
		COLL_ANGLE=90.00
		COLL_OFFSET_INPLANE=0.00
		COLL_OFFSET_CROSSPLANE=0.00
		SCAN_DEVICE=STARCHECK
		ELECTROMETER=2D_ARRAY_INTERFACE
		DETECTOR=STARCHECK
		SCAN_CURVETYPE=INPLANE_PROFILE
		SCAN_DEPTH=0.00
		SCAN_OFFAXIS_CROSSPLANE=130.00
		SCAN_ANGLE=0.00
		SCAN_DIAGONAL=NOT_DIAGONAL
		MEAS_PRESET=TIME_PRESET
		MEAS_TIME=10.000
		MEAS_UNIT=GY
		PRESSURE=1013.25
		TEMPERATURE=20.00
		NORM_TEMPERATURE=20.00
		CORRECTION_FACTOR=1.0000
		CORRECTIONS=AIR_DENSITY_CORR;
		BEGIN_DATA
			-130.00		2.0092E-03
			-125.00		2.4321E-03
			-120.00		2.1980E-03
			-115.00		2.7419E-03
			-110.00		2.6821E-03
			-105.00		3.4311E-03
			-100.00		3.3166E-03
			-95.00		3.0062E-03
			-90.00		2.8805E-03
			-85.00		3.6235E-03
			-80.00		3.3598E-03
			-75.00		3.7651E-03
			-70.00		3.8939E-03
			-65.00		3.9790E-03
			-60.00		4.5283E-03
			-55.00		4.3177E-03
			-50.00		4.1837E-03
			-45.00		4.8006E-03
			-40.00		4.8566E-03
			-35.00		5.2714E-03
			-30.00		5.1464E-03
			-25.00		4.9238E-03
			-20.00		4.9719E-03
			-15.00		4.8527E-03
			-10.00		4.5322E-03
			-5.00		5.7569E-03
			0.00		6.0508E-03
			5.00		5.3588E-03
			10.00		5.6500E-03
			15.00		5.0732E-03
			20.00		5.1085E-03
			25.00		5.1885E-03
			30.00		5.0578E-03
			35.00		5.1739E-03
			40.00		5.1223E-03
			45.00		4.8408E-03
			50.00		4.5921E-03
			55.00		4.7725E-03
			60.00		4.5604E-03
			65.00		3.9801E-03
			70.00		3.8859E-03
			75.00		3.7199E-03
			80.00		3.7139E-03
			85.00		3.4396E-03
			90.00		2.9789E-03
			95.00		3.1797E-03
			100.00		3.7858E-03
			105.00		2.6291E-03
			110.00		2.5142E-03
			115.00		2.5148E-03
			120.00		2.6371E-03
			125.00		2.0854E-03
			130.00		2.3062E-03
		END_DATA
	END_SCAN  14
	BEGIN_SCAN  15
		TASK_NAME=MODE_INTERVAL
		PROGRAM=BeamAdjust 1.2
		MEAS_DATE=07-Oct-2010 14:00:02
		LINAC=A4
		MODALITY=X
		INPLANE_AXIS_DIR=TARGET_GUN
		CROSSPLANE_AXIS_DIR=LEFT_RIGHT
		DEPTH_AXIS_DIR=UP_DOWN
		ENERGY=6.00
		SSD=950.00
		WEDGE=None
		FIELD_INPLANE=100.00
		FIELD_CROSSPLANE=100.00
		FIELD_TYPE=RECTANGULAR
		GANTRY=0.00
		GANTRY_UPRIGHT_POSITION=0
		GANTRY_ROTATION=CW
		COLL_ANGLE=90.00
		COLL_OFFSET_INPLANE=0.00
		COLL_OFFSET_CROSSPLANE=0.00
		SCAN_DEVICE=STARCHECK
		ELECTROMETER=2D_ARRAY_INTERFACE
		DETECTOR=STARCHECK
		SCAN_CURVETYPE=INPLANE_PROFILE
		SCAN_DEPTH=0.00
		SCAN_OFFAXIS_CROSSPLANE=0.00
		SCAN_ANGLE=0.00
		SCAN_DIAGONAL=FIRST_DIAGONAL
		MEAS_PRESET=TIME_PRESET
		MEAS_TIME=10.000
		MEAS_UNIT=GY
		PRESSURE=1013.25
		TEMPERATURE=20.00
		NORM_TEMPERATURE=20.00
		CORRECTION_FACTOR=1.0000
		CORRECTIONS=AIR_DENSITY_CORR;
		BEGIN_DATA
			-172.40		2.7745E-03
			-169.40		3.2782E-03
			-166.40		4.3036E-03
			-163.40		4.0018E-03
			-160.40		4.4890E-03
			-157.40		4.3985E-03
			-154.40		4.1232E-03
			-151.40		4.3893E-03
			-148.40		5.6320E-03
			-145.40		5.5366E-03
			-142.40		6.0618E-03
			-139.40		6.3016E-03
			-136.40		6.4071E-03
			-133.40		7.0134E-03
			-130.40		7.9837E-03
			-127.40		8.3288E-03
			-124.40		8.6905E-03
			-121.40		9.2973E-03
			-118.40		10.351E-03
			-115.40		11.212E-03
			-112.40		11.938E-03
			-109.40		13.518E-03
			-106.40		15.593E-03
			-103.40		15.461E-03
			-100.40		16.749E-03
			-97.40		19.264E-03
			-94.40		21.458E-03
			-91.40		23.675E-03
			-88.40		27.503E-03
			-85.40		31.090E-03
			-82.40		36.543E-03
			-79.40		45.911E-03
			-76.40		69.150E-03
			-73.40		154.37E-03
			-70.40		341.20E-03
			-67.40		504.05E-03
			-64.40		586.19E-03
			-61.40		616.67E-03
			-58.40		631.08E-03
			-55.40		640.81E-03
			-52.40		646.46E-03
			-49.40		651.30E-03
			-46.40		653.22E-03
			-43.40		655.56E-03
			-40.40		658.15E-03
			-37.40		662.96E-03
			-34.40		662.00E-03
			-31.40		664.02E-03
			-28.40		662.27E-03
			-25.40		665.08E-03
			-22.40		666.23E-03
			-19.40		666.80E-03
			-16.40		670.19E-03
			-13.40		672.30E-03
			0.00		668.86E-03
			13.40		671.91E-03
			16.40		667.63E-03
			19.40		667.50E-03
			22.40		666.21E-03
			25.40		665.13E-03
			28.40		664.19E-03
			31.40		661.18E-03
			34.40		658.20E-03
			37.40		660.10E-03
			40.40		657.07E-03
			43.40		654.23E-03
			46.40		651.21E-03
			49.40		644.35E-03
			52.40		637.32E-03
			55.40		621.26E-03
			58.40		597.77E-03
			61.40		538.98E-03
			64.40		381.44E-03
			67.40		179.86E-03
			70.40		76.530E-03
			73.40		48.579E-03
			76.40		37.433E-03
			79.40		31.675E-03
			82.40		27.207E-03
			85.40		24.602E-03
			88.40		21.991E-03
			91.40		19.507E-03
			94.40		17.843E-03
			97.40		16.002E-03
			100.40		14.781E-03
			103.40		13.971E-03
			106.40		12.897E-03
			109.40		11.418E-03
			112.40		9.9457E-03
			115.40		9.6916E-03
			118.40		8.5012E-03
			121.40		7.9448E-03
			124.40		7.5025E-03
			127.40		8.0051E-03
			130.40		7.2243E-03
			133.40		6.0833E-03
			136.40		5.1129E-03
			139.40		5.0028E-03
			142.40		4.7326E-03
			145.40		4.4295E-03
			148.40		4.5157E-03
			151.40		3.9095E-03
			154.40		3.8109E-03
			157.40		3.7301E-03
			160.40		2.6966E-03
			163.40		2.7301E-03
			166.40		3.3585E-03
			169.40		3.0851E-03
			172.40		2.9489E-03
		END_DATA
	END_SCAN  15
	BEGIN_SCAN  16
		TASK_NAME=MODE_INTERVAL
		PROGRAM=BeamAdjust 1.2
		MEAS_DATE=07-Oct-2010 14:00:02
		LINAC=A4
		MODALITY=X
		INPLANE_AXIS_DIR=GUN_TARGET
		CROSSPLANE_AXIS_DIR=LEFT_RIGHT
		DEPTH_AXIS_DIR=UP_DOWN
		ENERGY=6.00
		SSD=950.00
		WEDGE=None
		FIELD_INPLANE=100.00
		FIELD_CROSSPLANE=100.00
		FIELD_TYPE=RECTANGULAR
		GANTRY=0.00
		GANTRY_UPRIGHT_POSITION=0
		GANTRY_ROTATION=CW
		COLL_ANGLE=90.00
		COLL_OFFSET_INPLANE=0.00
		COLL_OFFSET_CROSSPLANE=0.00
		SCAN_DEVICE=STARCHECK
		ELECTROMETER=2D_ARRAY_INTERFACE
		DETECTOR=STARCHECK
		SCAN_CURVETYPE=INPLANE_PROFILE
		SCAN_DEPTH=0.00
		SCAN_OFFAXIS_CROSSPLANE=0.00
		SCAN_ANGLE=0.00
		SCAN_DIAGONAL=SECOND_DIAGONAL
		MEAS_PRESET=TIME_PRESET
		MEAS_TIME=10.000
		MEAS_UNIT=GY
		PRESSURE=1013.25
		TEMPERATURE=20.00
		NORM_TEMPERATURE=20.00
		CORRECTION_FACTOR=1.0000
		CORRECTIONS=AIR_DENSITY_CORR;
		BEGIN_DATA
			-172.40		2.8518E-03
			-169.40		2.9957E-03
			-166.40		2.9680E-03
			-163.40		2.9110E-03
			-160.40		3.6743E-03
			-157.40		3.7994E-03
			-154.40		3.7943E-03
			-151.40		4.2946E-03
			-148.40		4.4860E-03
			-145.40		4.7027E-03
			-142.40		4.9058E-03
			-139.40		5.2146E-03
			-136.40		5.5524E-03
			-133.40		6.3094E-03
			-130.40		6.6017E-03
			-127.40		7.7870E-03
			-124.40		8.3010E-03
			-121.40		8.6267E-03
			-118.40		9.4297E-03
			-115.40		9.5774E-03
			-112.40		10.173E-03
			-109.40		11.498E-03
			-106.40		12.592E-03
			-103.40		13.436E-03
			-100.40		15.038E-03
			-97.40		16.412E-03
			-94.40		17.993E-03
			-91.40		20.003E-03
			-88.40		21.611E-03
			-85.40		24.415E-03
			-82.40		27.291E-03
			-79.40		31.931E-03
			-76.40		39.114E-03
			-73.40		52.310E-03
			-70.40		88.915E-03
			-67.40		220.34E-03
			-64.40		414.07E-03
			-61.40		549.13E-03
			-58.40		607.63E-03
			-55.40		629.01E-03
			-52.40		643.79E-03
			-49.40		650.47E-03
			-46.40		654.89E-03
			-43.40		658.28E-03
			-40.40		660.62E-03
			-37.40		664.76E-03
			-34.40		665.16E-03
			-31.40		665.66E-03
			-28.40		668.41E-03
			-25.40		667.22E-03
			-22.40		665.30E-03
			-19.40		668.42E-03
			-16.40		669.73E-03
			-13.40		673.28E-03
			0.00		668.86E-03
			13.40		673.42E-03
			16.40		670.25E-03
			19.40		666.61E-03
			22.40		663.54E-03
			25.40		663.25E-03
			28.40		662.26E-03
			31.40		661.57E-03
			34.40		658.21E-03
			37.40		657.61E-03
			40.40		656.31E-03
			43.40		654.53E-03
			46.40		652.52E-03
			49.40		648.74E-03
			52.40		641.18E-03
			55.40		633.29E-03
			58.40		623.94E-03
			61.40		599.16E-03
			64.40		539.02E-03
			67.40		410.20E-03
			70.40		234.24E-03
			73.40		101.26E-03
			76.40		55.789E-03
			79.40		40.767E-03
			82.40		34.254E-03
			85.40		29.657E-03
			88.40		25.916E-03
			91.40		23.350E-03
			94.40		21.030E-03
			97.40		19.077E-03
			100.40		16.518E-03
			103.40		15.142E-03
			106.40		14.304E-03
			109.40		12.939E-03
			112.40		11.943E-03
			115.40		11.537E-03
			118.40		9.9753E-03
			121.40		9.2187E-03
			124.40		8.4475E-03
			127.40		7.5853E-03
			130.40		7.6085E-03
			133.40		6.7865E-03
			136.40		6.6496E-03
			139.40		6.6133E-03
			142.40		6.0583E-03
			145.40		5.5724E-03
			148.40		4.8050E-03
			151.40		4.4014E-03
			154.40		4.2662E-03
			157.40		4.7051E-03
			160.40		3.9875E-03
			163.40		4.2128E-03
			166.40		3.5550E-03
			169.40		2.7515E-03
			172.40		2.6739E-03
		END_DATA
	END_SCAN  16
END_SCAN_DATA
