BEGIN_SCAN_DATA
	FORMAT=CC-Export V1.9                  
	FILE_CREATION_DATE=07-Oct-2010 14:00:25
	LAST_MODIFIED=07-Oct-2010 14:00:25
	BEGIN_SCAN  1
		TASK_NAME=MODE_INTERVAL
		PROGRAM=BeamAdjust 1.2
		MEAS_DATE=07-Oct-2010 14:00:25
		LINAC=A4
		MODALITY=X
		INPLANE_AXIS_DIR=TARGET_GUN
		CROSSPLANE_AXIS_DIR=LEFT_RIGHT
		DEPTH_AXIS_DIR=UP_DOWN
		ENERGY=6.00
		SSD=950.00
		WEDGE=None
		FIELD_INPLANE=100.00
		FIELD_CROSSPLANE=100.00
		FIELD_TYPE=RECTANGULAR
		GANTRY=0.00
		GANTRY_UPRIGHT_POSITION=0
		GANTRY_ROTATION=CW
		COLL_ANGLE=90.00
		COLL_OFFSET_INPLANE=0.00
		COLL_OFFSET_CROSSPLANE=0.00
		SCAN_DEVICE=STARCHECK
		ELECTROMETER=2D_ARRAY_INTERFACE
		DETECTOR=STARCHECK
		SCAN_CURVETYPE=CROSSPLANE_PROFILE
		SCAN_DEPTH=0.00
		SCAN_OFFAXIS_INPLANE=-130.00
		SCAN_ANGLE=0.00
		SCAN_DIAGONAL=NOT_DIAGONAL
		MEAS_PRESET=TIME_PRESET
		MEAS_TIME=10.000
		MEAS_UNIT=GY
		PRESSURE=1013.25
		TEMPERATURE=20.00
		NORM_TEMPERATURE=20.00
		CORRECTION_FACTOR=1.0000
		CORRECTIONS=AIR_DENSITY_CORR;
		BEGIN_DATA
			-130.00		2.6886E-03
			-80.00		4.5975E-03
			-40.00		7.6431E-03
			40.00		6.4422E-03
			80.00		3.6490E-03
			130.00		2.3608E-03
		END_DATA
	END_SCAN  1
	BEGIN_SCAN  2
		TASK_NAME=MODE_INTERVAL
		PROGRAM=BeamAdjust 1.2
		MEAS_DATE=07-Oct-2010 14:00:25
		LINAC=A4
		MODALITY=X
		INPLANE_AXIS_DIR=TARGET_GUN
		CROSSPLANE_AXIS_DIR=LEFT_RIGHT
		DEPTH_AXIS_DIR=UP_DOWN
		ENERGY=6.00
		SSD=950.00
		WEDGE=None
		FIELD_INPLANE=100.00
		FIELD_CROSSPLANE=100.00
		FIELD_TYPE=RECTANGULAR
		GANTRY=0.00
		GANTRY_UPRIGHT_POSITION=0
		GANTRY_ROTATION=CW
		COLL_ANGLE=90.00
		COLL_OFFSET_INPLANE=0.00
		COLL_OFFSET_CROSSPLANE=0.00
		SCAN_DEVICE=STARCHECK
		ELECTROMETER=2D_ARRAY_INTERFACE
		DETECTOR=STARCHECK
		SCAN_CURVETYPE=CROSSPLANE_PROFILE
		SCAN_DEPTH=0.00
		SCAN_OFFAXIS_INPLANE=-100.00
		SCAN_ANGLE=0.00
		SCAN_DIAGONAL=NOT_DIAGONAL
		MEAS_PRESET=TIME_PRESET
		MEAS_TIME=10.000
		MEAS_UNIT=GY
		PRESSURE=1013.25
		TEMPERATURE=20.00
		NORM_TEMPERATURE=20.00
		CORRECTION_FACTOR=1.0000
		CORRECTIONS=AIR_DENSITY_CORR;
		BEGIN_DATA
			-60.00		11.152E-03
			-30.00		14.414E-03
			30.00		14.467E-03
			60.00		9.8572E-03
		END_DATA
	END_SCAN  2
	BEGIN_SCAN  3
		TASK_NAME=MODE_INTERVAL
		PROGRAM=BeamAdjust 1.2
		MEAS_DATE=07-Oct-2010 14:00:25
		LINAC=A4
		MODALITY=X
		INPLANE_AXIS_DIR=TARGET_GUN
		CROSSPLANE_AXIS_DIR=LEFT_RIGHT
		DEPTH_AXIS_DIR=UP_DOWN
		ENERGY=6.00
		SSD=950.00
		WEDGE=None
		FIELD_INPLANE=100.00
		FIELD_CROSSPLANE=100.00
		FIELD_TYPE=RECTANGULAR
		GANTRY=0.00
		GANTRY_UPRIGHT_POSITION=0
		GANTRY_ROTATION=CW
		COLL_ANGLE=90.00
		COLL_OFFSET_INPLANE=0.00
		COLL_OFFSET_CROSSPLANE=0.00
		SCAN_DEVICE=STARCHECK
		ELECTROMETER=2D_ARRAY_INTERFACE
		DETECTOR=STARCHECK
		SCAN_CURVETYPE=CROSSPLANE_PROFILE
		SCAN_DEPTH=0.00
		SCAN_OFFAXIS_INPLANE=-50.00
		SCAN_ANGLE=0.00
		SCAN_DIAGONAL=NOT_DIAGONAL
		MEAS_PRESET=TIME_PRESET
		MEAS_TIME=10.000
		MEAS_UNIT=GY
		PRESSURE=1013.25
		TEMPERATURE=20.00
		NORM_TEMPERATURE=20.00
		CORRECTION_FACTOR=1.0000
		CORRECTIONS=AIR_DENSITY_CORR;
		BEGIN_DATA
			-30.00		386.62E-03
			-15.00		367.22E-03
			15.00		386.66E-03
			30.00		377.17E-03
		END_DATA
	END_SCAN  3
	BEGIN_SCAN  4
		TASK_NAME=MODE_INTERVAL
		PROGRAM=BeamAdjust 1.2
		MEAS_DATE=07-Oct-2010 14:00:25
		LINAC=A4
		MODALITY=X
		INPLANE_AXIS_DIR=TARGET_GUN
		CROSSPLANE_AXIS_DIR=LEFT_RIGHT
		DEPTH_AXIS_DIR=UP_DOWN
		ENERGY=6.00
		SSD=950.00
		WEDGE=None
		FIELD_INPLANE=100.00
		FIELD_CROSSPLANE=100.00
		FIELD_TYPE=RECTANGULAR
		GANTRY=0.00
		GANTRY_UPRIGHT_POSITION=0
		GANTRY_ROTATION=CW
		COLL_ANGLE=90.00
		COLL_OFFSET_INPLANE=0.00
		COLL_OFFSET_CROSSPLANE=0.00
		SCAN_DEVICE=STARCHECK
		ELECTROMETER=2D_ARRAY_INTERFACE
		DETECTOR=STARCHECK
		SCAN_CURVETYPE=CROSSPLANE_PROFILE
		SCAN_DEPTH=0.00
		SCAN_OFFAXIS_INPLANE=0.00
		SCAN_ANGLE=0.00
		SCAN_DIAGONAL=NOT_DIAGONAL
		MEAS_PRESET=TIME_PRESET
		MEAS_TIME=10.000
		MEAS_UNIT=GY
		PRESSURE=1013.25
		TEMPERATURE=20.00
		NORM_TEMPERATURE=20.00
		CORRECTION_FACTOR=1.0000
		CORRECTIONS=AIR_DENSITY_CORR;
		BEGIN_DATA
			-126.00		7.3333E-03
			-123.00		8.3313E-03
			-120.00		8.4084E-03
			-117.00		9.2005E-03
			-114.00		9.9558E-03
			-111.00		10.472E-03
			-108.00		11.680E-03
			-105.00		12.292E-03
			-102.00		13.437E-03
			-99.00		14.259E-03
			-96.00		15.198E-03
			-93.00		16.894E-03
			-90.00		18.763E-03
			-87.00		20.249E-03
			-84.00		22.858E-03
			-81.00		24.574E-03
			-78.00		27.114E-03
			-75.00		30.638E-03
			-72.00		33.969E-03
			-69.00		39.418E-03
			-66.00		46.541E-03
			-63.00		55.695E-03
			-60.00		73.362E-03
			-57.00		115.02E-03
			-54.00		289.11E-03
			-51.00		554.77E-03
			-48.00		620.34E-03
			-45.00		638.06E-03
			-42.00		647.02E-03
			-39.00		655.23E-03
			-36.00		659.31E-03
			-33.00		658.69E-03
			-30.00		659.76E-03
			-27.00		662.05E-03
			-24.00		664.39E-03
			-21.00		664.65E-03
			-18.00		671.35E-03
			-15.00		669.93E-03
			-12.00		668.05E-03
			-9.00		670.28E-03
			-6.00		669.27E-03
			0.00		669.28E-03
			6.00		673.27E-03
			9.00		671.43E-03
			12.00		668.13E-03
			15.00		667.31E-03
			18.00		666.29E-03
			21.00		664.78E-03
			24.00		661.24E-03
			27.00		664.69E-03
			30.00		662.19E-03
			33.00		659.16E-03
			36.00		652.58E-03
			39.00		641.29E-03
			42.00		615.51E-03
			45.00		527.86E-03
			48.00		235.16E-03
			51.00		101.71E-03
			54.00		68.481E-03
			57.00		53.720E-03
			60.00		44.699E-03
			63.00		38.495E-03
			66.00		33.148E-03
			69.00		29.319E-03
			72.00		26.611E-03
			75.00		24.358E-03
			78.00		21.410E-03
			81.00		19.892E-03
			84.00		18.429E-03
			87.00		16.437E-03
			90.00		15.603E-03
			93.00		13.719E-03
			96.00		12.375E-03
			99.00		11.850E-03
			102.00		10.884E-03
			105.00		10.260E-03
			108.00		10.103E-03
			111.00		8.8332E-03
			114.00		8.4281E-03
			117.00		8.3954E-03
			120.00		6.7784E-03
			123.00		6.8285E-03
			126.00		6.8356E-03
		END_DATA
	END_SCAN  4
	BEGIN_SCAN  5
		TASK_NAME=MODE_INTERVAL
		PROGRAM=BeamAdjust 1.2
		MEAS_DATE=07-Oct-2010 14:00:25
		LINAC=A4
		MODALITY=X
		INPLANE_AXIS_DIR=TARGET_GUN
		CROSSPLANE_AXIS_DIR=LEFT_RIGHT
		DEPTH_AXIS_DIR=UP_DOWN
		ENERGY=6.00
		SSD=950.00
		WEDGE=None
		FIELD_INPLANE=100.00
		FIELD_CROSSPLANE=100.00
		FIELD_TYPE=RECTANGULAR
		GANTRY=0.00
		GANTRY_UPRIGHT_POSITION=0
		GANTRY_ROTATION=CW
		COLL_ANGLE=90.00
		COLL_OFFSET_INPLANE=0.00
		COLL_OFFSET_CROSSPLANE=0.00
		SCAN_DEVICE=STARCHECK
		ELECTROMETER=2D_ARRAY_INTERFACE
		DETECTOR=STARCHECK
		SCAN_CURVETYPE=CROSSPLANE_PROFILE
		SCAN_DEPTH=0.00
		SCAN_OFFAXIS_INPLANE=50.00
		SCAN_ANGLE=0.00
		SCAN_DIAGONAL=NOT_DIAGONAL
		MEAS_PRESET=TIME_PRESET
		MEAS_TIME=10.000
		MEAS_UNIT=GY
		PRESSURE=1013.25
		TEMPERATURE=20.00
		NORM_TEMPERATURE=20.00
		CORRECTION_FACTOR=1.0000
		CORRECTIONS=AIR_DENSITY_CORR;
		BEGIN_DATA
			-30.00		270.54E-03
			-15.00		290.47E-03
			15.00		263.23E-03
			30.00		251.50E-03
		END_DATA
	END_SCAN  5
	BEGIN_SCAN  6
		TASK_NAME=MODE_INTERVAL
		PROGRAM=BeamAdjust 1.2
		MEAS_DATE=07-Oct-2010 14:00:25
		LINAC=A4
		MODALITY=X
		INPLANE_AXIS_DIR=TARGET_GUN
		CROSSPLANE_AXIS_DIR=LEFT_RIGHT
		DEPTH_AXIS_DIR=UP_DOWN
		ENERGY=6.00
		SSD=950.00
		WEDGE=None
		FIELD_INPLANE=100.00
		FIELD_CROSSPLANE=100.00
		FIELD_TYPE=RECTANGULAR
		GANTRY=0.00
		GANTRY_UPRIGHT_POSITION=0
		GANTRY_ROTATION=CW
		COLL_ANGLE=90.00
		COLL_OFFSET_INPLANE=0.00
		COLL_OFFSET_CROSSPLANE=0.00
		SCAN_DEVICE=STARCHECK
		ELECTROMETER=2D_ARRAY_INTERFACE
		DETECTOR=STARCHECK
		SCAN_CURVETYPE=CROSSPLANE_PROFILE
		SCAN_DEPTH=0.00
		SCAN_OFFAXIS_INPLANE=100.00
		SCAN_ANGLE=0.00
		SCAN_DIAGONAL=NOT_DIAGONAL
		MEAS_PRESET=TIME_PRESET
		MEAS_TIME=10.000
		MEAS_UNIT=GY
		PRESSURE=1013.25
		TEMPERATURE=20.00
		NORM_TEMPERATURE=20.00
		CORRECTION_FACTOR=1.0000
		CORRECTIONS=AIR_DENSITY_CORR;
		BEGIN_DATA
			-60.00		10.692E-03
			-30.00		15.011E-03
			30.00		14.682E-03
			60.00		8.8675E-03
		END_DATA
	END_SCAN  6
	BEGIN_SCAN  7
		TASK_NAME=MODE_INTERVAL
		PROGRAM=BeamAdjust 1.2
		MEAS_DATE=07-Oct-2010 14:00:25
		LINAC=A4
		MODALITY=X
		INPLANE_AXIS_DIR=TARGET_GUN
		CROSSPLANE_AXIS_DIR=LEFT_RIGHT
		DEPTH_AXIS_DIR=UP_DOWN
		ENERGY=6.00
		SSD=950.00
		WEDGE=None
		FIELD_INPLANE=100.00
		FIELD_CROSSPLANE=100.00
		FIELD_TYPE=RECTANGULAR
		GANTRY=0.00
		GANTRY_UPRIGHT_POSITION=0
		GANTRY_ROTATION=CW
		COLL_ANGLE=90.00
		COLL_OFFSET_INPLANE=0.00
		COLL_OFFSET_CROSSPLANE=0.00
		SCAN_DEVICE=STARCHECK
		ELECTROMETER=2D_ARRAY_INTERFACE
		DETECTOR=STARCHECK
		SCAN_CURVETYPE=CROSSPLANE_PROFILE
		SCAN_DEPTH=0.00
		SCAN_OFFAXIS_INPLANE=130.00
		SCAN_ANGLE=0.00
		SCAN_DIAGONAL=NOT_DIAGONAL
		MEAS_PRESET=TIME_PRESET
		MEAS_TIME=10.000
		MEAS_UNIT=GY
		PRESSURE=1013.25
		TEMPERATURE=20.00
		NORM_TEMPERATURE=20.00
		CORRECTION_FACTOR=1.0000
		CORRECTIONS=AIR_DENSITY_CORR;
		BEGIN_DATA
			-130.00		1.9440E-03
			-80.00		4.5464E-03
			-40.00		7.4932E-03
			40.00		6.3339E-03
			80.00		4.2009E-03
			130.00		2.1643E-03
		END_DATA
	END_SCAN  7
	BEGIN_SCAN  8
		TASK_NAME=MODE_INTERVAL
		PROGRAM=BeamAdjust 1.2
		MEAS_DATE=07-Oct-2010 14:00:25
		LINAC=A4
		MODALITY=X
		INPLANE_AXIS_DIR=TARGET_GUN
		CROSSPLANE_AXIS_DIR=LEFT_RIGHT
		DEPTH_AXIS_DIR=UP_DOWN
		ENERGY=6.00
		SSD=950.00
		WEDGE=None
		FIELD_INPLANE=100.00
		FIELD_CROSSPLANE=100.00
		FIELD_TYPE=RECTANGULAR
		GANTRY=0.00
		GANTRY_UPRIGHT_POSITION=0
		GANTRY_ROTATION=CW
		COLL_ANGLE=90.00
		COLL_OFFSET_INPLANE=0.00
		COLL_OFFSET_CROSSPLANE=0.00
		SCAN_DEVICE=STARCHECK
		ELECTROMETER=2D_ARRAY_INTERFACE
		DETECTOR=STARCHECK
		SCAN_CURVETYPE=INPLANE_PROFILE
		SCAN_DEPTH=0.00
		SCAN_OFFAXIS_CROSSPLANE=-130.00
		SCAN_ANGLE=0.00
		SCAN_DIAGONAL=NOT_DIAGONAL
		MEAS_PRESET=TIME_PRESET
		MEAS_TIME=10.000
		MEAS_UNIT=GY
		PRESSURE=1013.25
		TEMPERATURE=20.00
		NORM_TEMPERATURE=20.00
		CORRECTION_FACTOR=1.0000
		CORRECTIONS=AIR_DENSITY_CORR;
		BEGIN_DATA
			-130.00		2.6886E-03
			-125.00		2.7228E-03
			-120.00		3.3454E-03
			-115.00		3.5639E-03
			-110.00		3.9125E-03
			-105.00		3.9775E-03
			-100.00		4.4257E-03
			-95.00		4.6115E-03
			-90.00		4.9382E-03
			-85.00		4.4696E-03
			-80.00		4.8112E-03
			-75.00		5.3049E-03
			-70.00		5.3211E-03
			-65.00		5.4799E-03
			-60.00		5.8052E-03
			-55.00		6.3768E-03
			-50.00		4.7117E-03
			-45.00		5.1183E-03
			-40.00		5.4440E-03
			-35.00		6.1095E-03
			-30.00		6.0995E-03
			-25.00		5.8460E-03
			-20.00		5.9580E-03
			-15.00		5.6206E-03
			-10.00		5.7833E-03
			-5.00		6.4644E-03
			0.00		6.4057E-03
			5.00		6.8428E-03
			10.00		6.3856E-03
			15.00		6.1280E-03
			20.00		6.3192E-03
			25.00		6.1926E-03
			30.00		6.0559E-03
			35.00		5.8667E-03
			40.00		5.2436E-03
			45.00		4.8622E-03
			50.00		5.2720E-03
			55.00		4.6801E-03
			60.00		4.9576E-03
			65.00		4.6589E-03
			70.00		4.4188E-03
			75.00		4.3062E-03
			80.00		3.8999E-03
			85.00		3.4970E-03
			90.00		3.5367E-03
			95.00		3.9746E-03
			100.00		3.1355E-03
			105.00		2.9659E-03
			110.00		3.1480E-03
			115.00		2.6381E-03
			120.00		2.7772E-03
			125.00		2.4846E-03
			130.00		1.9440E-03
		END_DATA
	END_SCAN  8
	BEGIN_SCAN  9
		TASK_NAME=MODE_INTERVAL
		PROGRAM=BeamAdjust 1.2
		MEAS_DATE=07-Oct-2010 14:00:25
		LINAC=A4
		MODALITY=X
		INPLANE_AXIS_DIR=TARGET_GUN
		CROSSPLANE_AXIS_DIR=LEFT_RIGHT
		DEPTH_AXIS_DIR=UP_DOWN
		ENERGY=6.00
		SSD=950.00
		WEDGE=None
		FIELD_INPLANE=100.00
		FIELD_CROSSPLANE=100.00
		FIELD_TYPE=RECTANGULAR
		GANTRY=0.00
		GANTRY_UPRIGHT_POSITION=0
		GANTRY_ROTATION=CW
		COLL_ANGLE=90.00
		COLL_OFFSET_INPLANE=0.00
		COLL_OFFSET_CROSSPLANE=0.00
		SCAN_DEVICE=STARCHECK
		ELECTROMETER=2D_ARRAY_INTERFACE
		DETECTOR=STARCHECK
		SCAN_CURVETYPE=INPLANE_PROFILE
		SCAN_DEPTH=0.00
		SCAN_OFFAXIS_CROSSPLANE=-100.00
		SCAN_ANGLE=0.00
		SCAN_DIAGONAL=NOT_DIAGONAL
		MEAS_PRESET=TIME_PRESET
		MEAS_TIME=10.000
		MEAS_UNIT=GY
		PRESSURE=1013.25
		TEMPERATURE=20.00
		NORM_TEMPERATURE=20.00
		CORRECTION_FACTOR=1.0000
		CORRECTIONS=AIR_DENSITY_CORR;
		BEGIN_DATA
			-60.00		9.0346E-03
			-30.00		11.065E-03
			30.00		11.061E-03
			60.00		8.8931E-03
		END_DATA
	END_SCAN  9
	BEGIN_SCAN  10
		TASK_NAME=MODE_INTERVAL
		PROGRAM=BeamAdjust 1.2
		MEAS_DATE=07-Oct-2010 14:00:25
		LINAC=A4
		MODALITY=X
		INPLANE_AXIS_DIR=TARGET_GUN
		CROSSPLANE_AXIS_DIR=LEFT_RIGHT
		DEPTH_AXIS_DIR=UP_DOWN
		ENERGY=6.00
		SSD=950.00
		WEDGE=None
		FIELD_INPLANE=100.00
		FIELD_CROSSPLANE=100.00
		FIELD_TYPE=RECTANGULAR
		GANTRY=0.00
		GANTRY_UPRIGHT_POSITION=0
		GANTRY_ROTATION=CW
		COLL_ANGLE=90.00
		COLL_OFFSET_INPLANE=0.00
		COLL_OFFSET_CROSSPLANE=0.00
		SCAN_DEVICE=STARCHECK
		ELECTROMETER=2D_ARRAY_INTERFACE
		DETECTOR=STARCHECK
		SCAN_CURVETYPE=INPLANE_PROFILE
		SCAN_DEPTH=0.00
		SCAN_OFFAXIS_CROSSPLANE=-50.00
		SCAN_ANGLE=0.00
		SCAN_DIAGONAL=NOT_DIAGONAL
		MEAS_PRESET=TIME_PRESET
		MEAS_TIME=10.000
		MEAS_UNIT=GY
		PRESSURE=1013.25
		TEMPERATURE=20.00
		NORM_TEMPERATURE=20.00
		CORRECTION_FACTOR=1.0000
		CORRECTIONS=AIR_DENSITY_CORR;
		BEGIN_DATA
			-30.00		594.38E-03
			-15.00		594.24E-03
			15.00		590.55E-03
			30.00		582.72E-03
		END_DATA
	END_SCAN  10
	BEGIN_SCAN  11
		TASK_NAME=MODE_INTERVAL
		PROGRAM=BeamAdjust 1.2
		MEAS_DATE=07-Oct-2010 14:00:25
		LINAC=A4
		MODALITY=X
		INPLANE_AXIS_DIR=TARGET_GUN
		CROSSPLANE_AXIS_DIR=LEFT_RIGHT
		DEPTH_AXIS_DIR=UP_DOWN
		ENERGY=6.00
		SSD=950.00
		WEDGE=None
		FIELD_INPLANE=100.00
		FIELD_CROSSPLANE=100.00
		FIELD_TYPE=RECTANGULAR
		GANTRY=0.00
		GANTRY_UPRIGHT_POSITION=0
		GANTRY_ROTATION=CW
		COLL_ANGLE=90.00
		COLL_OFFSET_INPLANE=0.00
		COLL_OFFSET_CROSSPLANE=0.00
		SCAN_DEVICE=STARCHECK
		ELECTROMETER=2D_ARRAY_INTERFACE
		DETECTOR=STARCHECK
		SCAN_CURVETYPE=INPLANE_PROFILE
		SCAN_DEPTH=0.00
		SCAN_OFFAXIS_CROSSPLANE=0.00
		SCAN_ANGLE=0.00
		SCAN_DIAGONAL=NOT_DIAGONAL
		MEAS_PRESET=TIME_PRESET
		MEAS_TIME=10.000
		MEAS_UNIT=GY
		PRESSURE=1013.25
		TEMPERATURE=20.00
		NORM_TEMPERATURE=20.00
		CORRECTION_FACTOR=1.0000
		CORRECTIONS=AIR_DENSITY_CORR;
		BEGIN_DATA
			-126.00		8.9994E-03
			-123.00		9.0468E-03
			-120.00		10.282E-03
			-117.00		11.461E-03
			-114.00		11.829E-03
			-111.00		12.723E-03
			-108.00		13.840E-03
			-105.00		14.492E-03
			-102.00		15.870E-03
			-99.00		17.165E-03
			-96.00		18.225E-03
			-93.00		20.435E-03
			-90.00		21.857E-03
			-87.00		23.795E-03
			-84.00		25.837E-03
			-81.00		28.162E-03
			-78.00		30.395E-03
			-75.00		33.213E-03
			-72.00		36.711E-03
			-69.00		40.405E-03
			-66.00		46.154E-03
			-63.00		52.468E-03
			-60.00		62.502E-03
			-57.00		82.637E-03
			-54.00		131.52E-03
			-51.00		296.51E-03
			-48.00		552.73E-03
			-45.00		623.64E-03
			-42.00		644.18E-03
			-39.00		653.29E-03
			-36.00		658.78E-03
			-33.00		662.35E-03
			-30.00		666.30E-03
			-27.00		667.56E-03
			-24.00		666.62E-03
			-21.00		665.82E-03
			-18.00		672.29E-03
			-15.00		671.29E-03
			-12.00		672.14E-03
			-9.00		672.39E-03
			-6.00		669.77E-03
			0.00		669.28E-03
			6.00		674.21E-03
			9.00		672.87E-03
			12.00		672.16E-03
			15.00		669.82E-03
			18.00		665.66E-03
			21.00		665.23E-03
			24.00		662.06E-03
			27.00		663.29E-03
			30.00		658.94E-03
			33.00		657.17E-03
			36.00		654.98E-03
			39.00		643.68E-03
			42.00		631.86E-03
			45.00		598.45E-03
			48.00		438.98E-03
			51.00		191.21E-03
			54.00		99.431E-03
			57.00		70.275E-03
			60.00		57.064E-03
			63.00		48.806E-03
			66.00		43.659E-03
			69.00		38.515E-03
			72.00		35.009E-03
			75.00		31.717E-03
			78.00		28.438E-03
			81.00		26.281E-03
			84.00		24.550E-03
			87.00		22.566E-03
			90.00		21.079E-03
			93.00		19.402E-03
			96.00		18.383E-03
			99.00		16.554E-03
			102.00		15.006E-03
			105.00		13.931E-03
			108.00		13.409E-03
			111.00		12.130E-03
			114.00		11.658E-03
			117.00		11.102E-03
			120.00		10.787E-03
			123.00		9.6128E-03
			126.00		8.4414E-03
		END_DATA
	END_SCAN  11
	BEGIN_SCAN  12
		TASK_NAME=MODE_INTERVAL
		PROGRAM=BeamAdjust 1.2
		MEAS_DATE=07-Oct-2010 14:00:25
		LINAC=A4
		MODALITY=X
		INPLANE_AXIS_DIR=TARGET_GUN
		CROSSPLANE_AXIS_DIR=LEFT_RIGHT
		DEPTH_AXIS_DIR=UP_DOWN
		ENERGY=6.00
		SSD=950.00
		WEDGE=None
		FIELD_INPLANE=100.00
		FIELD_CROSSPLANE=100.00
		FIELD_TYPE=RECTANGULAR
		GANTRY=0.00
		GANTRY_UPRIGHT_POSITION=0
		GANTRY_ROTATION=CW
		COLL_ANGLE=90.00
		COLL_OFFSET_INPLANE=0.00
		COLL_OFFSET_CROSSPLANE=0.00
		SCAN_DEVICE=STARCHECK
		ELECTROMETER=2D_ARRAY_INTERFACE
		DETECTOR=STARCHECK
		SCAN_CURVETYPE=INPLANE_PROFILE
		SCAN_DEPTH=0.00
		SCAN_OFFAXIS_CROSSPLANE=50.00
		SCAN_ANGLE=0.00
		SCAN_DIAGONAL=NOT_DIAGONAL
		MEAS_PRESET=TIME_PRESET
		MEAS_TIME=10.000
		MEAS_UNIT=GY
		PRESSURE=1013.25
		TEMPERATURE=20.00
		NORM_TEMPERATURE=20.00
		CORRECTION_FACTOR=1.0000
		CORRECTIONS=AIR_DENSITY_CORR;
		BEGIN_DATA
			-30.00		115.33E-03
			-15.00		121.91E-03
			15.00		125.92E-03
			30.00		123.97E-03
		END_DATA
	END_SCAN  12
	BEGIN_SCAN  13
		TASK_NAME=MODE_INTERVAL
		PROGRAM=BeamAdjust 1.2
		MEAS_DATE=07-Oct-2010 14:00:25
		LINAC=A4
		MODALITY=X
		INPLANE_AXIS_DIR=TARGET_GUN
		CROSSPLANE_AXIS_DIR=LEFT_RIGHT
		DEPTH_AXIS_DIR=UP_DOWN
		ENERGY=6.00
		SSD=950.00
		WEDGE=None
		FIELD_INPLANE=100.00
		FIELD_CROSSPLANE=100.00
		FIELD_TYPE=RECTANGULAR
		GANTRY=0.00
		GANTRY_UPRIGHT_POSITION=0
		GANTRY_ROTATION=CW
		COLL_ANGLE=90.00
		COLL_OFFSET_INPLANE=0.00
		COLL_OFFSET_CROSSPLANE=0.00
		SCAN_DEVICE=STARCHECK
		ELECTROMETER=2D_ARRAY_INTERFACE
		DETECTOR=STARCHECK
		SCAN_CURVETYPE=INPLANE_PROFILE
		SCAN_DEPTH=0.00
		SCAN_OFFAXIS_CROSSPLANE=100.00
		SCAN_ANGLE=0.00
		SCAN_DIAGONAL=NOT_DIAGONAL
		MEAS_PRESET=TIME_PRESET
		MEAS_TIME=10.000
		MEAS_UNIT=GY
		PRESSURE=1013.25
		TEMPERATURE=20.00
		NORM_TEMPERATURE=20.00
		CORRECTION_FACTOR=1.0000
		CORRECTIONS=AIR_DENSITY_CORR;
		BEGIN_DATA
			-60.00		7.5828E-03
			-30.00		9.7350E-03
			30.00		10.071E-03
			60.00		7.5566E-03
		END_DATA
	END_SCAN  13
	BEGIN_SCAN  14
		TASK_NAME=MODE_INTERVAL
		PROGRAM=BeamAdjust 1.2
		MEAS_DATE=07-Oct-2010 14:00:25
		LINAC=A4
		MODALITY=X
		INPLANE_AXIS_DIR=TARGET_GUN
		CROSSPLANE_AXIS_DIR=LEFT_RIGHT
		DEPTH_AXIS_DIR=UP_DOWN
		ENERGY=6.00
		SSD=950.00
		WEDGE=None
		FIELD_INPLANE=100.00
		FIELD_CROSSPLANE=100.00
		FIELD_TYPE=RECTANGULAR
		GANTRY=0.00
		GANTRY_UPRIGHT_POSITION=0
		GANTRY_ROTATION=CW
		COLL_ANGLE=90.00
		COLL_OFFSET_INPLANE=0.00
		COLL_OFFSET_CROSSPLANE=0.00
		SCAN_DEVICE=STARCHECK
		ELECTROMETER=2D_ARRAY_INTERFACE
		DETECTOR=STARCHECK
		SCAN_CURVETYPE=INPLANE_PROFILE
		SCAN_DEPTH=0.00
		SCAN_OFFAXIS_CROSSPLANE=130.00
		SCAN_ANGLE=0.00
		SCAN_DIAGONAL=NOT_DIAGONAL
		MEAS_PRESET=TIME_PRESET
		MEAS_TIME=10.000
		MEAS_UNIT=GY
		PRESSURE=1013.25
		TEMPERATURE=20.00
		NORM_TEMPERATURE=20.00
		CORRECTION_FACTOR=1.0000
		CORRECTIONS=AIR_DENSITY_CORR;
		BEGIN_DATA
			-130.00		2.3608E-03
			-125.00		2.7852E-03
			-120.00		2.3694E-03
			-115.00		2.6989E-03
			-110.00		2.5733E-03
			-105.00		2.7327E-03
			-100.00		3.5870E-03
			-95.00		2.8607E-03
			-90.00		3.0731E-03
			-85.00		4.1100E-03
			-80.00		3.5678E-03
			-75.00		3.6676E-03
			-70.00		3.8895E-03
			-65.00		3.7517E-03
			-60.00		4.5843E-03
			-55.00		3.9649E-03
			-50.00		4.2191E-03
			-45.00		4.8552E-03
			-40.00		4.9954E-03
			-35.00		5.0273E-03
			-30.00		5.7819E-03
			-25.00		4.8897E-03
			-20.00		5.3472E-03
			-15.00		4.8527E-03
			-10.00		4.2887E-03
			-5.00		5.5745E-03
			0.00		6.0332E-03
			5.00		5.3676E-03
			10.00		5.7134E-03
			15.00		5.0186E-03
			20.00		5.2077E-03
			25.00		5.4050E-03
			30.00		4.5975E-03
			35.00		4.7253E-03
			40.00		5.9167E-03
			45.00		4.7995E-03
			50.00		4.5198E-03
			55.00		4.7666E-03
			60.00		4.3258E-03
			65.00		3.8037E-03
			70.00		3.8756E-03
			75.00		3.9888E-03
			80.00		3.9611E-03
			85.00		3.6803E-03
			90.00		3.1690E-03
			95.00		3.1678E-03
			100.00		3.4442E-03
			105.00		2.3921E-03
			110.00		3.0522E-03
			115.00		2.5310E-03
			120.00		2.5427E-03
			125.00		2.2639E-03
			130.00		2.1643E-03
		END_DATA
	END_SCAN  14
	BEGIN_SCAN  15
		TASK_NAME=MODE_INTERVAL
		PROGRAM=BeamAdjust 1.2
		MEAS_DATE=07-Oct-2010 14:00:25
		LINAC=A4
		MODALITY=X
		INPLANE_AXIS_DIR=TARGET_GUN
		CROSSPLANE_AXIS_DIR=LEFT_RIGHT
		DEPTH_AXIS_DIR=UP_DOWN
		ENERGY=6.00
		SSD=950.00
		WEDGE=None
		FIELD_INPLANE=100.00
		FIELD_CROSSPLANE=100.00
		FIELD_TYPE=RECTANGULAR
		GANTRY=0.00
		GANTRY_UPRIGHT_POSITION=0
		GANTRY_ROTATION=CW
		COLL_ANGLE=90.00
		COLL_OFFSET_INPLANE=0.00
		COLL_OFFSET_CROSSPLANE=0.00
		SCAN_DEVICE=STARCHECK
		ELECTROMETER=2D_ARRAY_INTERFACE
		DETECTOR=STARCHECK
		SCAN_CURVETYPE=INPLANE_PROFILE
		SCAN_DEPTH=0.00
		SCAN_OFFAXIS_CROSSPLANE=0.00
		SCAN_ANGLE=0.00
		SCAN_DIAGONAL=FIRST_DIAGONAL
		MEAS_PRESET=TIME_PRESET
		MEAS_TIME=10.000
		MEAS_UNIT=GY
		PRESSURE=1013.25
		TEMPERATURE=20.00
		NORM_TEMPERATURE=20.00
		CORRECTION_FACTOR=1.0000
		CORRECTIONS=AIR_DENSITY_CORR;
		BEGIN_DATA
			-172.40		2.8769E-03
			-169.40		3.2393E-03
			-166.40		3.9922E-03
			-163.40		3.4598E-03
			-160.40		3.5954E-03
			-157.40		4.0260E-03
			-154.40		4.3090E-03
			-151.40		4.3328E-03
			-148.40		5.0301E-03
			-145.40		5.6647E-03
			-142.40		6.3824E-03
			-139.40		6.1229E-03
			-136.40		6.0363E-03
			-133.40		7.0565E-03
			-130.40		7.6968E-03
			-127.40		8.1627E-03
			-124.40		8.7305E-03
			-121.40		9.5861E-03
			-118.40		10.615E-03
			-115.40		11.184E-03
			-112.40		12.010E-03
			-109.40		13.570E-03
			-106.40		14.773E-03
			-103.40		15.891E-03
			-100.40		17.448E-03
			-97.40		19.602E-03
			-94.40		21.628E-03
			-91.40		24.209E-03
			-88.40		27.325E-03
			-85.40		31.375E-03
			-82.40		37.352E-03
			-79.40		47.517E-03
			-76.40		72.160E-03
			-73.40		163.29E-03
			-70.40		350.00E-03
			-67.40		507.56E-03
			-64.40		587.58E-03
			-61.40		618.65E-03
			-58.40		632.85E-03
			-55.40		642.00E-03
			-52.40		647.85E-03
			-49.40		652.31E-03
			-46.40		654.47E-03
			-43.40		656.51E-03
			-40.40		659.17E-03
			-37.40		663.82E-03
			-34.40		663.30E-03
			-31.40		664.57E-03
			-28.40		663.32E-03
			-25.40		666.23E-03
			-22.40		667.04E-03
			-19.40		668.49E-03
			-16.40		671.04E-03
			-13.40		672.50E-03
			0.00		669.28E-03
			13.40		672.13E-03
			16.40		667.95E-03
			19.40		667.97E-03
			22.40		666.82E-03
			25.40		666.06E-03
			28.40		664.61E-03
			31.40		661.68E-03
			34.40		658.25E-03
			37.40		660.27E-03
			40.40		657.45E-03
			43.40		653.86E-03
			46.40		651.53E-03
			49.40		644.12E-03
			52.40		637.12E-03
			55.40		620.68E-03
			58.40		594.64E-03
			61.40		529.37E-03
			64.40		364.62E-03
			67.40		167.18E-03
			70.40		72.674E-03
			73.40		47.005E-03
			76.40		36.822E-03
			79.40		31.349E-03
			82.40		27.414E-03
			85.40		23.980E-03
			88.40		22.589E-03
			91.40		19.450E-03
			94.40		17.423E-03
			97.40		15.683E-03
			100.40		14.403E-03
			103.40		13.997E-03
			106.40		12.729E-03
			109.40		11.618E-03
			112.40		9.9635E-03
			115.40		9.5249E-03
			118.40		8.3814E-03
			121.40		7.7191E-03
			124.40		7.4728E-03
			127.40		7.3001E-03
			130.40		7.8031E-03
			133.40		6.0389E-03
			136.40		5.3497E-03
			139.40		4.8994E-03
			142.40		4.7873E-03
			145.40		4.5202E-03
			148.40		4.6074E-03
			151.40		3.8500E-03
			154.40		4.0986E-03
			157.40		3.7093E-03
			160.40		2.6269E-03
			163.40		2.8254E-03
			166.40		3.2708E-03
			169.40		2.8499E-03
			172.40		3.4488E-03
		END_DATA
	END_SCAN  15
	BEGIN_SCAN  16
		TASK_NAME=MODE_INTERVAL
		PROGRAM=BeamAdjust 1.2
		MEAS_DATE=07-Oct-2010 14:00:25
		LINAC=A4
		MODALITY=X
		INPLANE_AXIS_DIR=GUN_TARGET
		CROSSPLANE_AXIS_DIR=LEFT_RIGHT
		DEPTH_AXIS_DIR=UP_DOWN
		ENERGY=6.00
		SSD=950.00
		WEDGE=None
		FIELD_INPLANE=100.00
		FIELD_CROSSPLANE=100.00
		FIELD_TYPE=RECTANGULAR
		GANTRY=0.00
		GANTRY_UPRIGHT_POSITION=0
		GANTRY_ROTATION=CW
		COLL_ANGLE=90.00
		COLL_OFFSET_INPLANE=0.00
		COLL_OFFSET_CROSSPLANE=0.00
		SCAN_DEVICE=STARCHECK
		ELECTROMETER=2D_ARRAY_INTERFACE
		DETECTOR=STARCHECK
		SCAN_CURVETYPE=INPLANE_PROFILE
		SCAN_DEPTH=0.00
		SCAN_OFFAXIS_CROSSPLANE=0.00
		SCAN_ANGLE=0.00
		SCAN_DIAGONAL=SECOND_DIAGONAL
		MEAS_PRESET=TIME_PRESET
		MEAS_TIME=10.000
		MEAS_UNIT=GY
		PRESSURE=1013.25
		TEMPERATURE=20.00
		NORM_TEMPERATURE=20.00
		CORRECTION_FACTOR=1.0000
		CORRECTIONS=AIR_DENSITY_CORR;
		BEGIN_DATA
			-172.40		3.1611E-03
			-169.40		3.0491E-03
			-166.40		3.0723E-03
			-163.40		3.5600E-03
			-160.40		3.3756E-03
			-157.40		3.7370E-03
			-154.40		4.0760E-03
			-151.40		4.3717E-03
			-148.40		4.5515E-03
			-145.40		4.9043E-03
			-142.40		5.1970E-03
			-139.40		5.2843E-03
			-136.40		5.4561E-03
			-133.40		6.5269E-03
			-130.40		6.6505E-03
			-127.40		7.3315E-03
			-124.40		7.9404E-03
			-121.40		8.8885E-03
			-118.40		9.0416E-03
			-115.40		9.3312E-03
			-112.40		10.164E-03
			-109.40		11.592E-03
			-106.40		12.376E-03
			-103.40		13.279E-03
			-100.40		14.898E-03
			-97.40		15.943E-03
			-94.40		17.523E-03
			-91.40		19.784E-03
			-88.40		21.500E-03
			-85.40		24.112E-03
			-82.40		27.131E-03
			-79.40		32.291E-03
			-76.40		37.962E-03
			-73.40		50.431E-03
			-70.40		83.226E-03
			-67.40		203.10E-03
			-64.40		394.71E-03
			-61.40		537.68E-03
			-58.40		604.16E-03
			-55.40		627.98E-03
			-52.40		643.84E-03
			-49.40		650.71E-03
			-46.40		655.41E-03
			-43.40		659.00E-03
			-40.40		661.50E-03
			-37.40		665.59E-03
			-34.40		664.70E-03
			-31.40		666.43E-03
			-28.40		668.87E-03
			-25.40		667.91E-03
			-22.40		666.31E-03
			-19.40		669.45E-03
			-16.40		670.31E-03
			-13.40		673.14E-03
			0.00		669.28E-03
			13.40		673.34E-03
			16.40		670.83E-03
			19.40		667.01E-03
			22.40		663.96E-03
			25.40		664.11E-03
			28.40		663.43E-03
			31.40		661.44E-03
			34.40		658.60E-03
			37.40		658.07E-03
			40.40		656.91E-03
			43.40		655.07E-03
			46.40		653.22E-03
			49.40		649.30E-03
			52.40		641.83E-03
			55.40		634.07E-03
			58.40		624.97E-03
			61.40		600.48E-03
			64.40		541.04E-03
			67.40		414.67E-03
			70.40		243.01E-03
			73.40		105.30E-03
			76.40		57.050E-03
			79.40		41.258E-03
			82.40		34.514E-03
			85.40		29.586E-03
			88.40		26.207E-03
			91.40		23.889E-03
			94.40		21.304E-03
			97.40		19.203E-03
			100.40		16.134E-03
			103.40		14.874E-03
			106.40		14.198E-03
			109.40		13.132E-03
			112.40		11.888E-03
			115.40		10.974E-03
			118.40		10.167E-03
			121.40		9.2530E-03
			124.40		8.3099E-03
			127.40		7.5868E-03
			130.40		7.8116E-03
			133.40		7.0312E-03
			136.40		6.0794E-03
			139.40		6.4144E-03
			142.40		6.0434E-03
			145.40		5.8696E-03
			148.40		5.3718E-03
			151.40		4.8736E-03
			154.40		4.5860E-03
			157.40		4.4257E-03
			160.40		3.9213E-03
			163.40		4.0341E-03
			166.40		3.7864E-03
			169.40		3.0151E-03
			172.40		2.9018E-03
		END_DATA
	END_SCAN  16
END_SCAN_DATA
