BEGIN_SCAN_DATA
	FORMAT=CC-Export V1.9                  
	FILE_CREATION_DATE=07-Oct-2010 14:00:56
	LAST_MODIFIED=07-Oct-2010 14:00:56
	BEGIN_SCAN  1
		TASK_NAME=MODE_INTERVAL
		PROGRAM=BeamAdjust 1.2
		MEAS_DATE=07-Oct-2010 14:00:56
		LINAC=A4
		MODALITY=X
		INPLANE_AXIS_DIR=TARGET_GUN
		CROSSPLANE_AXIS_DIR=LEFT_RIGHT
		DEPTH_AXIS_DIR=UP_DOWN
		ENERGY=6.00
		SSD=950.00
		WEDGE=None
		FIELD_INPLANE=100.00
		FIELD_CROSSPLANE=100.00
		FIELD_TYPE=RECTANGULAR
		GANTRY=0.00
		GANTRY_UPRIGHT_POSITION=0
		GANTRY_ROTATION=CW
		COLL_ANGLE=90.00
		COLL_OFFSET_INPLANE=0.00
		COLL_OFFSET_CROSSPLANE=0.00
		SCAN_DEVICE=STARCHECK
		ELECTROMETER=2D_ARRAY_INTERFACE
		DETECTOR=STARCHECK
		SCAN_CURVETYPE=CROSSPLANE_PROFILE
		SCAN_DEPTH=0.00
		SCAN_OFFAXIS_INPLANE=-130.00
		SCAN_ANGLE=0.00
		SCAN_DIAGONAL=NOT_DIAGONAL
		MEAS_PRESET=TIME_PRESET
		MEAS_TIME=10.000
		MEAS_UNIT=GY
		PRESSURE=1013.25
		TEMPERATURE=20.00
		NORM_TEMPERATURE=20.00
		CORRECTION_FACTOR=1.0000
		CORRECTIONS=AIR_DENSITY_CORR;
		BEGIN_DATA
			-130.00		2.6173E-03
			-80.00		4.4002E-03
			-40.00		7.3927E-03
			40.00		6.5919E-03
			80.00		3.6132E-03
			130.00		2.1125E-03
		END_DATA
	END_SCAN  1
	BEGIN_SCAN  2
		TASK_NAME=MODE_INTERVAL
		PROGRAM=BeamAdjust 1.2
		MEAS_DATE=07-Oct-2010 14:00:56
		LINAC=A4
		MODALITY=X
		INPLANE_AXIS_DIR=TARGET_GUN
		CROSSPLANE_AXIS_DIR=LEFT_RIGHT
		DEPTH_AXIS_DIR=UP_DOWN
		ENERGY=6.00
		SSD=950.00
		WEDGE=None
		FIELD_INPLANE=100.00
		FIELD_CROSSPLANE=100.00
		FIELD_TYPE=RECTANGULAR
		GANTRY=0.00
		GANTRY_UPRIGHT_POSITION=0
		GANTRY_ROTATION=CW
		COLL_ANGLE=90.00
		COLL_OFFSET_INPLANE=0.00
		COLL_OFFSET_CROSSPLANE=0.00
		SCAN_DEVICE=STARCHECK
		ELECTROMETER=2D_ARRAY_INTERFACE
		DETECTOR=STARCHECK
		SCAN_CURVETYPE=CROSSPLANE_PROFILE
		SCAN_DEPTH=0.00
		SCAN_OFFAXIS_INPLANE=-100.00
		SCAN_ANGLE=0.00
		SCAN_DIAGONAL=NOT_DIAGONAL
		MEAS_PRESET=TIME_PRESET
		MEAS_TIME=10.000
		MEAS_UNIT=GY
		PRESSURE=1013.25
		TEMPERATURE=20.00
		NORM_TEMPERATURE=20.00
		CORRECTION_FACTOR=1.0000
		CORRECTIONS=AIR_DENSITY_CORR;
		BEGIN_DATA
			-60.00		11.228E-03
			-30.00		14.432E-03
			30.00		14.729E-03
			60.00		9.4318E-03
		END_DATA
	END_SCAN  2
	BEGIN_SCAN  3
		TASK_NAME=MODE_INTERVAL
		PROGRAM=BeamAdjust 1.2
		MEAS_DATE=07-Oct-2010 14:00:56
		LINAC=A4
		MODALITY=X
		INPLANE_AXIS_DIR=TARGET_GUN
		CROSSPLANE_AXIS_DIR=LEFT_RIGHT
		DEPTH_AXIS_DIR=UP_DOWN
		ENERGY=6.00
		SSD=950.00
		WEDGE=None
		FIELD_INPLANE=100.00
		FIELD_CROSSPLANE=100.00
		FIELD_TYPE=RECTANGULAR
		GANTRY=0.00
		GANTRY_UPRIGHT_POSITION=0
		GANTRY_ROTATION=CW
		COLL_ANGLE=90.00
		COLL_OFFSET_INPLANE=0.00
		COLL_OFFSET_CROSSPLANE=0.00
		SCAN_DEVICE=STARCHECK
		ELECTROMETER=2D_ARRAY_INTERFACE
		DETECTOR=STARCHECK
		SCAN_CURVETYPE=CROSSPLANE_PROFILE
		SCAN_DEPTH=0.00
		SCAN_OFFAXIS_INPLANE=-50.00
		SCAN_ANGLE=0.00
		SCAN_DIAGONAL=NOT_DIAGONAL
		MEAS_PRESET=TIME_PRESET
		MEAS_TIME=10.000
		MEAS_UNIT=GY
		PRESSURE=1013.25
		TEMPERATURE=20.00
		NORM_TEMPERATURE=20.00
		CORRECTION_FACTOR=1.0000
		CORRECTIONS=AIR_DENSITY_CORR;
		BEGIN_DATA
			-30.00		385.15E-03
			-15.00		368.31E-03
			15.00		386.55E-03
			30.00		376.10E-03
		END_DATA
	END_SCAN  3
	BEGIN_SCAN  4
		TASK_NAME=MODE_INTERVAL
		PROGRAM=BeamAdjust 1.2
		MEAS_DATE=07-Oct-2010 14:00:56
		LINAC=A4
		MODALITY=X
		INPLANE_AXIS_DIR=TARGET_GUN
		CROSSPLANE_AXIS_DIR=LEFT_RIGHT
		DEPTH_AXIS_DIR=UP_DOWN
		ENERGY=6.00
		SSD=950.00
		WEDGE=None
		FIELD_INPLANE=100.00
		FIELD_CROSSPLANE=100.00
		FIELD_TYPE=RECTANGULAR
		GANTRY=0.00
		GANTRY_UPRIGHT_POSITION=0
		GANTRY_ROTATION=CW
		COLL_ANGLE=90.00
		COLL_OFFSET_INPLANE=0.00
		COLL_OFFSET_CROSSPLANE=0.00
		SCAN_DEVICE=STARCHECK
		ELECTROMETER=2D_ARRAY_INTERFACE
		DETECTOR=STARCHECK
		SCAN_CURVETYPE=CROSSPLANE_PROFILE
		SCAN_DEPTH=0.00
		SCAN_OFFAXIS_INPLANE=0.00
		SCAN_ANGLE=0.00
		SCAN_DIAGONAL=NOT_DIAGONAL
		MEAS_PRESET=TIME_PRESET
		MEAS_TIME=10.000
		MEAS_UNIT=GY
		PRESSURE=1013.25
		TEMPERATURE=20.00
		NORM_TEMPERATURE=20.00
		CORRECTION_FACTOR=1.0000
		CORRECTIONS=AIR_DENSITY_CORR;
		BEGIN_DATA
			-126.00		7.0378E-03
			-123.00		8.1252E-03
			-120.00		8.3549E-03
			-117.00		9.3887E-03
			-114.00		9.5857E-03
			-111.00		10.419E-03
			-108.00		11.598E-03
			-105.00		12.350E-03
			-102.00		13.372E-03
			-99.00		14.915E-03
			-96.00		15.682E-03
			-93.00		17.013E-03
			-90.00		18.405E-03
			-87.00		20.219E-03
			-84.00		22.715E-03
			-81.00		24.389E-03
			-78.00		26.991E-03
			-75.00		30.753E-03
			-72.00		34.281E-03
			-69.00		39.832E-03
			-66.00		47.092E-03
			-63.00		56.602E-03
			-60.00		75.312E-03
			-57.00		122.92E-03
			-54.00		320.19E-03
			-51.00		566.54E-03
			-48.00		622.91E-03
			-45.00		638.52E-03
			-42.00		646.61E-03
			-39.00		654.56E-03
			-36.00		658.55E-03
			-33.00		657.91E-03
			-30.00		658.54E-03
			-27.00		660.93E-03
			-24.00		663.82E-03
			-21.00		664.09E-03
			-18.00		669.90E-03
			-15.00		669.53E-03
			-12.00		667.48E-03
			-9.00		669.38E-03
			-6.00		668.42E-03
			0.00		668.65E-03
			6.00		672.48E-03
			9.00		670.71E-03
			12.00		666.71E-03
			15.00		666.00E-03
			18.00		665.93E-03
			21.00		663.89E-03
			24.00		660.11E-03
			27.00		663.66E-03
			30.00		661.08E-03
			33.00		656.93E-03
			36.00		651.31E-03
			39.00		638.84E-03
			42.00		610.48E-03
			45.00		505.51E-03
			48.00		208.28E-03
			51.00		96.430E-03
			54.00		66.187E-03
			57.00		52.377E-03
			60.00		43.704E-03
			63.00		38.014E-03
			66.00		32.951E-03
			69.00		29.148E-03
			72.00		26.400E-03
			75.00		23.791E-03
			78.00		21.902E-03
			81.00		19.454E-03
			84.00		17.974E-03
			87.00		16.144E-03
			90.00		15.338E-03
			93.00		14.013E-03
			96.00		12.462E-03
			99.00		11.887E-03
			102.00		11.165E-03
			105.00		10.241E-03
			108.00		9.6131E-03
			111.00		8.5444E-03
			114.00		8.4001E-03
			117.00		7.7951E-03
			120.00		7.4915E-03
			123.00		6.8166E-03
			126.00		6.8888E-03
		END_DATA
	END_SCAN  4
	BEGIN_SCAN  5
		TASK_NAME=MODE_INTERVAL
		PROGRAM=BeamAdjust 1.2
		MEAS_DATE=07-Oct-2010 14:00:56
		LINAC=A4
		MODALITY=X
		INPLANE_AXIS_DIR=TARGET_GUN
		CROSSPLANE_AXIS_DIR=LEFT_RIGHT
		DEPTH_AXIS_DIR=UP_DOWN
		ENERGY=6.00
		SSD=950.00
		WEDGE=None
		FIELD_INPLANE=100.00
		FIELD_CROSSPLANE=100.00
		FIELD_TYPE=RECTANGULAR
		GANTRY=0.00
		GANTRY_UPRIGHT_POSITION=0
		GANTRY_ROTATION=CW
		COLL_ANGLE=90.00
		COLL_OFFSET_INPLANE=0.00
		COLL_OFFSET_CROSSPLANE=0.00
		SCAN_DEVICE=STARCHECK
		ELECTROMETER=2D_ARRAY_INTERFACE
		DETECTOR=STARCHECK
		SCAN_CURVETYPE=CROSSPLANE_PROFILE
		SCAN_DEPTH=0.00
		SCAN_OFFAXIS_INPLANE=50.00
		SCAN_ANGLE=0.00
		SCAN_DIAGONAL=NOT_DIAGONAL
		MEAS_PRESET=TIME_PRESET
		MEAS_TIME=10.000
		MEAS_UNIT=GY
		PRESSURE=1013.25
		TEMPERATURE=20.00
		NORM_TEMPERATURE=20.00
		CORRECTION_FACTOR=1.0000
		CORRECTIONS=AIR_DENSITY_CORR;
		BEGIN_DATA
			-30.00		268.95E-03
			-15.00		289.76E-03
			15.00		264.18E-03
			30.00		250.72E-03
		END_DATA
	END_SCAN  5
	BEGIN_SCAN  6
		TASK_NAME=MODE_INTERVAL
		PROGRAM=BeamAdjust 1.2
		MEAS_DATE=07-Oct-2010 14:00:56
		LINAC=A4
		MODALITY=X
		INPLANE_AXIS_DIR=TARGET_GUN
		CROSSPLANE_AXIS_DIR=LEFT_RIGHT
		DEPTH_AXIS_DIR=UP_DOWN
		ENERGY=6.00
		SSD=950.00
		WEDGE=None
		FIELD_INPLANE=100.00
		FIELD_CROSSPLANE=100.00
		FIELD_TYPE=RECTANGULAR
		GANTRY=0.00
		GANTRY_UPRIGHT_POSITION=0
		GANTRY_ROTATION=CW
		COLL_ANGLE=90.00
		COLL_OFFSET_INPLANE=0.00
		COLL_OFFSET_CROSSPLANE=0.00
		SCAN_DEVICE=STARCHECK
		ELECTROMETER=2D_ARRAY_INTERFACE
		DETECTOR=STARCHECK
		SCAN_CURVETYPE=CROSSPLANE_PROFILE
		SCAN_DEPTH=0.00
		SCAN_OFFAXIS_INPLANE=100.00
		SCAN_ANGLE=0.00
		SCAN_DIAGONAL=NOT_DIAGONAL
		MEAS_PRESET=TIME_PRESET
		MEAS_TIME=10.000
		MEAS_UNIT=GY
		PRESSURE=1013.25
		TEMPERATURE=20.00
		NORM_TEMPERATURE=20.00
		CORRECTION_FACTOR=1.0000
		CORRECTIONS=AIR_DENSITY_CORR;
		BEGIN_DATA
			-60.00		10.989E-03
			-30.00		15.530E-03
			30.00		14.449E-03
			60.00		8.9031E-03
		END_DATA
	END_SCAN  6
	BEGIN_SCAN  7
		TASK_NAME=MODE_INTERVAL
		PROGRAM=BeamAdjust 1.2
		MEAS_DATE=07-Oct-2010 14:00:56
		LINAC=A4
		MODALITY=X
		INPLANE_AXIS_DIR=TARGET_GUN
		CROSSPLANE_AXIS_DIR=LEFT_RIGHT
		DEPTH_AXIS_DIR=UP_DOWN
		ENERGY=6.00
		SSD=950.00
		WEDGE=None
		FIELD_INPLANE=100.00
		FIELD_CROSSPLANE=100.00
		FIELD_TYPE=RECTANGULAR
		GANTRY=0.00
		GANTRY_UPRIGHT_POSITION=0
		GANTRY_ROTATION=CW
		COLL_ANGLE=90.00
		COLL_OFFSET_INPLANE=0.00
		COLL_OFFSET_CROSSPLANE=0.00
		SCAN_DEVICE=STARCHECK
		ELECTROMETER=2D_ARRAY_INTERFACE
		DETECTOR=STARCHECK
		SCAN_CURVETYPE=CROSSPLANE_PROFILE
		SCAN_DEPTH=0.00
		SCAN_OFFAXIS_INPLANE=130.00
		SCAN_ANGLE=0.00
		SCAN_DIAGONAL=NOT_DIAGONAL
		MEAS_PRESET=TIME_PRESET
		MEAS_TIME=10.000
		MEAS_UNIT=GY
		PRESSURE=1013.25
		TEMPERATURE=20.00
		NORM_TEMPERATURE=20.00
		CORRECTION_FACTOR=1.0000
		CORRECTIONS=AIR_DENSITY_CORR;
		BEGIN_DATA
			-130.00		2.1188E-03
			-80.00		4.2534E-03
			-40.00		7.5067E-03
			40.00		6.5177E-03
			80.00		4.2351E-03
			130.00		2.3447E-03
		END_DATA
	END_SCAN  7
	BEGIN_SCAN  8
		TASK_NAME=MODE_INTERVAL
		PROGRAM=BeamAdjust 1.2
		MEAS_DATE=07-Oct-2010 14:00:56
		LINAC=A4
		MODALITY=X
		INPLANE_AXIS_DIR=TARGET_GUN
		CROSSPLANE_AXIS_DIR=LEFT_RIGHT
		DEPTH_AXIS_DIR=UP_DOWN
		ENERGY=6.00
		SSD=950.00
		WEDGE=None
		FIELD_INPLANE=100.00
		FIELD_CROSSPLANE=100.00
		FIELD_TYPE=RECTANGULAR
		GANTRY=0.00
		GANTRY_UPRIGHT_POSITION=0
		GANTRY_ROTATION=CW
		COLL_ANGLE=90.00
		COLL_OFFSET_INPLANE=0.00
		COLL_OFFSET_CROSSPLANE=0.00
		SCAN_DEVICE=STARCHECK
		ELECTROMETER=2D_ARRAY_INTERFACE
		DETECTOR=STARCHECK
		SCAN_CURVETYPE=INPLANE_PROFILE
		SCAN_DEPTH=0.00
		SCAN_OFFAXIS_CROSSPLANE=-130.00
		SCAN_ANGLE=0.00
		SCAN_DIAGONAL=NOT_DIAGONAL
		MEAS_PRESET=TIME_PRESET
		MEAS_TIME=10.000
		MEAS_UNIT=GY
		PRESSURE=1013.25
		TEMPERATURE=20.00
		NORM_TEMPERATURE=20.00
		CORRECTION_FACTOR=1.0000
		CORRECTIONS=AIR_DENSITY_CORR;
		BEGIN_DATA
			-130.00		2.6173E-03
			-125.00		2.6519E-03
			-120.00		3.0193E-03
			-115.00		3.2445E-03
			-110.00		3.6882E-03
			-105.00		4.1070E-03
			-100.00		4.5060E-03
			-95.00		4.7734E-03
			-90.00		4.8938E-03
			-85.00		4.5080E-03
			-80.00		4.6317E-03
			-75.00		5.4287E-03
			-70.00		5.3078E-03
			-65.00		5.2639E-03
			-60.00		5.3074E-03
			-55.00		6.2033E-03
			-50.00		4.7280E-03
			-45.00		5.0738E-03
			-40.00		5.9210E-03
			-35.00		5.8788E-03
			-30.00		5.7123E-03
			-25.00		5.6740E-03
			-20.00		5.7076E-03
			-15.00		5.6842E-03
			-10.00		5.9338E-03
			-5.00		6.6860E-03
			0.00		6.3380E-03
			5.00		6.8974E-03
			10.00		6.4804E-03
			15.00		5.9930E-03
			20.00		6.4133E-03
			25.00		5.4766E-03
			30.00		6.4217E-03
			35.00		5.8816E-03
			40.00		5.6383E-03
			45.00		5.4831E-03
			50.00		5.2363E-03
			55.00		4.8361E-03
			60.00		4.7706E-03
			65.00		4.1852E-03
			70.00		4.1157E-03
			75.00		4.2661E-03
			80.00		3.8538E-03
			85.00		3.7702E-03
			90.00		3.7149E-03
			95.00		3.7187E-03
			100.00		3.9437E-03
			105.00		3.0227E-03
			110.00		3.0630E-03
			115.00		2.6812E-03
			120.00		2.7386E-03
			125.00		2.6065E-03
			130.00		2.1188E-03
		END_DATA
	END_SCAN  8
	BEGIN_SCAN  9
		TASK_NAME=MODE_INTERVAL
		PROGRAM=BeamAdjust 1.2
		MEAS_DATE=07-Oct-2010 14:00:56
		LINAC=A4
		MODALITY=X
		INPLANE_AXIS_DIR=TARGET_GUN
		CROSSPLANE_AXIS_DIR=LEFT_RIGHT
		DEPTH_AXIS_DIR=UP_DOWN
		ENERGY=6.00
		SSD=950.00
		WEDGE=None
		FIELD_INPLANE=100.00
		FIELD_CROSSPLANE=100.00
		FIELD_TYPE=RECTANGULAR
		GANTRY=0.00
		GANTRY_UPRIGHT_POSITION=0
		GANTRY_ROTATION=CW
		COLL_ANGLE=90.00
		COLL_OFFSET_INPLANE=0.00
		COLL_OFFSET_CROSSPLANE=0.00
		SCAN_DEVICE=STARCHECK
		ELECTROMETER=2D_ARRAY_INTERFACE
		DETECTOR=STARCHECK
		SCAN_CURVETYPE=INPLANE_PROFILE
		SCAN_DEPTH=0.00
		SCAN_OFFAXIS_CROSSPLANE=-100.00
		SCAN_ANGLE=0.00
		SCAN_DIAGONAL=NOT_DIAGONAL
		MEAS_PRESET=TIME_PRESET
		MEAS_TIME=10.000
		MEAS_UNIT=GY
		PRESSURE=1013.25
		TEMPERATURE=20.00
		NORM_TEMPERATURE=20.00
		CORRECTION_FACTOR=1.0000
		CORRECTIONS=AIR_DENSITY_CORR;
		BEGIN_DATA
			-60.00		9.0998E-03
			-30.00		11.469E-03
			30.00		11.033E-03
			60.00		8.6029E-03
		END_DATA
	END_SCAN  9
	BEGIN_SCAN  10
		TASK_NAME=MODE_INTERVAL
		PROGRAM=BeamAdjust 1.2
		MEAS_DATE=07-Oct-2010 14:00:56
		LINAC=A4
		MODALITY=X
		INPLANE_AXIS_DIR=TARGET_GUN
		CROSSPLANE_AXIS_DIR=LEFT_RIGHT
		DEPTH_AXIS_DIR=UP_DOWN
		ENERGY=6.00
		SSD=950.00
		WEDGE=None
		FIELD_INPLANE=100.00
		FIELD_CROSSPLANE=100.00
		FIELD_TYPE=RECTANGULAR
		GANTRY=0.00
		GANTRY_UPRIGHT_POSITION=0
		GANTRY_ROTATION=CW
		COLL_ANGLE=90.00
		COLL_OFFSET_INPLANE=0.00
		COLL_OFFSET_CROSSPLANE=0.00
		SCAN_DEVICE=STARCHECK
		ELECTROMETER=2D_ARRAY_INTERFACE
		DETECTOR=STARCHECK
		SCAN_CURVETYPE=INPLANE_PROFILE
		SCAN_DEPTH=0.00
		SCAN_OFFAXIS_CROSSPLANE=-50.00
		SCAN_ANGLE=0.00
		SCAN_DIAGONAL=NOT_DIAGONAL
		MEAS_PRESET=TIME_PRESET
		MEAS_TIME=10.000
		MEAS_UNIT=GY
		PRESSURE=1013.25
		TEMPERATURE=20.00
		NORM_TEMPERATURE=20.00
		CORRECTION_FACTOR=1.0000
		CORRECTIONS=AIR_DENSITY_CORR;
		BEGIN_DATA
			-30.00		603.40E-03
			-15.00		603.23E-03
			15.00		600.53E-03
			30.00		592.81E-03
		END_DATA
	END_SCAN  10
	BEGIN_SCAN  11
		TASK_NAME=MODE_INTERVAL
		PROGRAM=BeamAdjust 1.2
		MEAS_DATE=07-Oct-2010 14:00:56
		LINAC=A4
		MODALITY=X
		INPLANE_AXIS_DIR=TARGET_GUN
		CROSSPLANE_AXIS_DIR=LEFT_RIGHT
		DEPTH_AXIS_DIR=UP_DOWN
		ENERGY=6.00
		SSD=950.00
		WEDGE=None
		FIELD_INPLANE=100.00
		FIELD_CROSSPLANE=100.00
		FIELD_TYPE=RECTANGULAR
		GANTRY=0.00
		GANTRY_UPRIGHT_POSITION=0
		GANTRY_ROTATION=CW
		COLL_ANGLE=90.00
		COLL_OFFSET_INPLANE=0.00
		COLL_OFFSET_CROSSPLANE=0.00
		SCAN_DEVICE=STARCHECK
		ELECTROMETER=2D_ARRAY_INTERFACE
		DETECTOR=STARCHECK
		SCAN_CURVETYPE=INPLANE_PROFILE
		SCAN_DEPTH=0.00
		SCAN_OFFAXIS_CROSSPLANE=0.00
		SCAN_ANGLE=0.00
		SCAN_DIAGONAL=NOT_DIAGONAL
		MEAS_PRESET=TIME_PRESET
		MEAS_TIME=10.000
		MEAS_UNIT=GY
		PRESSURE=1013.25
		TEMPERATURE=20.00
		NORM_TEMPERATURE=20.00
		CORRECTION_FACTOR=1.0000
		CORRECTIONS=AIR_DENSITY_CORR;
		BEGIN_DATA
			-126.00		9.1671E-03
			-123.00		9.2370E-03
			-120.00		10.603E-03
			-117.00		11.682E-03
			-114.00		12.099E-03
			-111.00		12.846E-03
			-108.00		13.539E-03
			-105.00		14.700E-03
			-102.00		16.305E-03
			-99.00		16.791E-03
			-96.00		18.571E-03
			-93.00		20.167E-03
			-90.00		21.587E-03
			-87.00		23.264E-03
			-84.00		25.804E-03
			-81.00		28.130E-03
			-78.00		30.609E-03
			-75.00		33.216E-03
			-72.00		36.779E-03
			-69.00		40.697E-03
			-66.00		46.056E-03
			-63.00		52.795E-03
			-60.00		62.440E-03
			-57.00		81.986E-03
			-54.00		131.69E-03
			-51.00		295.44E-03
			-48.00		551.53E-03
			-45.00		622.63E-03
			-42.00		643.29E-03
			-39.00		652.40E-03
			-36.00		658.05E-03
			-33.00		661.57E-03
			-30.00		665.34E-03
			-27.00		666.50E-03
			-24.00		666.00E-03
			-21.00		664.98E-03
			-18.00		671.52E-03
			-15.00		669.89E-03
			-12.00		671.47E-03
			-9.00		671.52E-03
			-6.00		669.02E-03
			0.00		668.65E-03
			6.00		672.92E-03
			9.00		671.98E-03
			12.00		670.79E-03
			15.00		668.92E-03
			18.00		664.68E-03
			21.00		664.71E-03
			24.00		660.99E-03
			27.00		662.47E-03
			30.00		658.38E-03
			33.00		656.18E-03
			36.00		653.91E-03
			39.00		642.66E-03
			42.00		631.09E-03
			45.00		597.74E-03
			48.00		439.22E-03
			51.00		191.59E-03
			54.00		99.264E-03
			57.00		70.099E-03
			60.00		56.649E-03
			63.00		48.824E-03
			66.00		43.458E-03
			69.00		38.705E-03
			72.00		35.197E-03
			75.00		31.407E-03
			78.00		28.611E-03
			81.00		26.214E-03
			84.00		24.492E-03
			87.00		22.640E-03
			90.00		21.134E-03
			93.00		19.497E-03
			96.00		18.430E-03
			99.00		16.613E-03
			102.00		14.928E-03
			105.00		14.024E-03
			108.00		13.686E-03
			111.00		12.166E-03
			114.00		11.499E-03
			117.00		10.841E-03
			120.00		10.540E-03
			123.00		9.5680E-03
			126.00		8.8987E-03
		END_DATA
	END_SCAN  11
	BEGIN_SCAN  12
		TASK_NAME=MODE_INTERVAL
		PROGRAM=BeamAdjust 1.2
		MEAS_DATE=07-Oct-2010 14:00:56
		LINAC=A4
		MODALITY=X
		INPLANE_AXIS_DIR=TARGET_GUN
		CROSSPLANE_AXIS_DIR=LEFT_RIGHT
		DEPTH_AXIS_DIR=UP_DOWN
		ENERGY=6.00
		SSD=950.00
		WEDGE=None
		FIELD_INPLANE=100.00
		FIELD_CROSSPLANE=100.00
		FIELD_TYPE=RECTANGULAR
		GANTRY=0.00
		GANTRY_UPRIGHT_POSITION=0
		GANTRY_ROTATION=CW
		COLL_ANGLE=90.00
		COLL_OFFSET_INPLANE=0.00
		COLL_OFFSET_CROSSPLANE=0.00
		SCAN_DEVICE=STARCHECK
		ELECTROMETER=2D_ARRAY_INTERFACE
		DETECTOR=STARCHECK
		SCAN_CURVETYPE=INPLANE_PROFILE
		SCAN_DEPTH=0.00
		SCAN_OFFAXIS_CROSSPLANE=50.00
		SCAN_ANGLE=0.00
		SCAN_DIAGONAL=NOT_DIAGONAL
		MEAS_PRESET=TIME_PRESET
		MEAS_TIME=10.000
		MEAS_UNIT=GY
		PRESSURE=1013.25
		TEMPERATURE=20.00
		NORM_TEMPERATURE=20.00
		CORRECTION_FACTOR=1.0000
		CORRECTIONS=AIR_DENSITY_CORR;
		BEGIN_DATA
			-30.00		104.03E-03
			-15.00		110.91E-03
			15.00		113.49E-03
			30.00		111.51E-03
		END_DATA
	END_SCAN  12
	BEGIN_SCAN  13
		TASK_NAME=MODE_INTERVAL
		PROGRAM=BeamAdjust 1.2
		MEAS_DATE=07-Oct-2010 14:00:56
		LINAC=A4
		MODALITY=X
		INPLANE_AXIS_DIR=TARGET_GUN
		CROSSPLANE_AXIS_DIR=LEFT_RIGHT
		DEPTH_AXIS_DIR=UP_DOWN
		ENERGY=6.00
		SSD=950.00
		WEDGE=None
		FIELD_INPLANE=100.00
		FIELD_CROSSPLANE=100.00
		FIELD_TYPE=RECTANGULAR
		GANTRY=0.00
		GANTRY_UPRIGHT_POSITION=0
		GANTRY_ROTATION=CW
		COLL_ANGLE=90.00
		COLL_OFFSET_INPLANE=0.00
		COLL_OFFSET_CROSSPLANE=0.00
		SCAN_DEVICE=STARCHECK
		ELECTROMETER=2D_ARRAY_INTERFACE
		DETECTOR=STARCHECK
		SCAN_CURVETYPE=INPLANE_PROFILE
		SCAN_DEPTH=0.00
		SCAN_OFFAXIS_CROSSPLANE=100.00
		SCAN_ANGLE=0.00
		SCAN_DIAGONAL=NOT_DIAGONAL
		MEAS_PRESET=TIME_PRESET
		MEAS_TIME=10.000
		MEAS_UNIT=GY
		PRESSURE=1013.25
		TEMPERATURE=20.00
		NORM_TEMPERATURE=20.00
		CORRECTION_FACTOR=1.0000
		CORRECTIONS=AIR_DENSITY_CORR;
		BEGIN_DATA
			-60.00		7.7018E-03
			-30.00		9.8210E-03
			30.00		9.5615E-03
			60.00		6.8151E-03
		END_DATA
	END_SCAN  13
	BEGIN_SCAN  14
		TASK_NAME=MODE_INTERVAL
		PROGRAM=BeamAdjust 1.2
		MEAS_DATE=07-Oct-2010 14:00:56
		LINAC=A4
		MODALITY=X
		INPLANE_AXIS_DIR=TARGET_GUN
		CROSSPLANE_AXIS_DIR=LEFT_RIGHT
		DEPTH_AXIS_DIR=UP_DOWN
		ENERGY=6.00
		SSD=950.00
		WEDGE=None
		FIELD_INPLANE=100.00
		FIELD_CROSSPLANE=100.00
		FIELD_TYPE=RECTANGULAR
		GANTRY=0.00
		GANTRY_UPRIGHT_POSITION=0
		GANTRY_ROTATION=CW
		COLL_ANGLE=90.00
		COLL_OFFSET_INPLANE=0.00
		COLL_OFFSET_CROSSPLANE=0.00
		SCAN_DEVICE=STARCHECK
		ELECTROMETER=2D_ARRAY_INTERFACE
		DETECTOR=STARCHECK
		SCAN_CURVETYPE=INPLANE_PROFILE
		SCAN_DEPTH=0.00
		SCAN_OFFAXIS_CROSSPLANE=130.00
		SCAN_ANGLE=0.00
		SCAN_DIAGONAL=NOT_DIAGONAL
		MEAS_PRESET=TIME_PRESET
		MEAS_TIME=10.000
		MEAS_UNIT=GY
		PRESSURE=1013.25
		TEMPERATURE=20.00
		NORM_TEMPERATURE=20.00
		CORRECTION_FACTOR=1.0000
		CORRECTIONS=AIR_DENSITY_CORR;
		BEGIN_DATA
			-130.00		2.1125E-03
			-125.00		2.7199E-03
			-120.00		2.1965E-03
			-115.00		2.4351E-03
			-110.00		2.4571E-03
			-105.00		2.5004E-03
			-100.00		2.9822E-03
			-95.00		3.2231E-03
			-90.00		2.6391E-03
			-85.00		3.3744E-03
			-80.00		3.4468E-03
			-75.00		3.6262E-03
			-70.00		3.9087E-03
			-65.00		3.9982E-03
			-60.00		4.7698E-03
			-55.00		4.0668E-03
			-50.00		3.7466E-03
			-45.00		4.6972E-03
			-40.00		4.9038E-03
			-35.00		4.7922E-03
			-30.00		4.9459E-03
			-25.00		5.1717E-03
			-20.00		4.7769E-03
			-15.00		4.9811E-03
			-10.00		4.6945E-03
			-5.00		5.5774E-03
			0.00		5.7216E-03
			5.00		5.3602E-03
			10.00		5.5070E-03
			15.00		5.2088E-03
			20.00		5.1263E-03
			25.00		5.1218E-03
			30.00		4.4119E-03
			35.00		4.8763E-03
			40.00		5.3518E-03
			45.00		5.3900E-03
			50.00		4.6054E-03
			55.00		4.7298E-03
			60.00		4.4910E-03
			65.00		3.8742E-03
			70.00		3.8977E-03
			75.00		3.8507E-03
			80.00		3.9096E-03
			85.00		3.5012E-03
			90.00		3.1086E-03
			95.00		3.3148E-03
			100.00		3.3804E-03
			105.00		2.5862E-03
			110.00		2.9946E-03
			115.00		3.2088E-03
			120.00		2.8701E-03
			125.00		2.4217E-03
			130.00		2.3447E-03
		END_DATA
	END_SCAN  14
	BEGIN_SCAN  15
		TASK_NAME=MODE_INTERVAL
		PROGRAM=BeamAdjust 1.2
		MEAS_DATE=07-Oct-2010 14:00:56
		LINAC=A4
		MODALITY=X
		INPLANE_AXIS_DIR=TARGET_GUN
		CROSSPLANE_AXIS_DIR=LEFT_RIGHT
		DEPTH_AXIS_DIR=UP_DOWN
		ENERGY=6.00
		SSD=950.00
		WEDGE=None
		FIELD_INPLANE=100.00
		FIELD_CROSSPLANE=100.00
		FIELD_TYPE=RECTANGULAR
		GANTRY=0.00
		GANTRY_UPRIGHT_POSITION=0
		GANTRY_ROTATION=CW
		COLL_ANGLE=90.00
		COLL_OFFSET_INPLANE=0.00
		COLL_OFFSET_CROSSPLANE=0.00
		SCAN_DEVICE=STARCHECK
		ELECTROMETER=2D_ARRAY_INTERFACE
		DETECTOR=STARCHECK
		SCAN_CURVETYPE=INPLANE_PROFILE
		SCAN_DEPTH=0.00
		SCAN_OFFAXIS_CROSSPLANE=0.00
		SCAN_ANGLE=0.00
		SCAN_DIAGONAL=FIRST_DIAGONAL
		MEAS_PRESET=TIME_PRESET
		MEAS_TIME=10.000
		MEAS_UNIT=GY
		PRESSURE=1013.25
		TEMPERATURE=20.00
		NORM_TEMPERATURE=20.00
		CORRECTION_FACTOR=1.0000
		CORRECTIONS=AIR_DENSITY_CORR;
		BEGIN_DATA
			-172.40		2.7474E-03
			-169.40		3.0311E-03
			-166.40		4.0671E-03
			-163.40		3.9615E-03
			-160.40		3.9013E-03
			-157.40		4.1884E-03
			-154.40		4.4517E-03
			-151.40		4.3685E-03
			-148.40		5.1850E-03
			-145.40		5.6692E-03
			-142.40		6.3022E-03
			-139.40		6.5831E-03
			-136.40		6.5546E-03
			-133.40		7.5347E-03
			-130.40		8.0624E-03
			-127.40		7.9001E-03
			-124.40		8.7216E-03
			-121.40		9.4454E-03
			-118.40		10.449E-03
			-115.40		11.413E-03
			-112.40		12.299E-03
			-109.40		13.500E-03
			-106.40		14.483E-03
			-103.40		15.793E-03
			-100.40		17.726E-03
			-97.40		19.844E-03
			-94.40		21.991E-03
			-91.40		24.546E-03
			-88.40		27.840E-03
			-85.40		31.422E-03
			-82.40		37.881E-03
			-79.40		48.497E-03
			-76.40		74.755E-03
			-73.40		171.47E-03
			-70.40		356.17E-03
			-67.40		509.05E-03
			-64.40		587.81E-03
			-61.40		618.34E-03
			-58.40		633.05E-03
			-55.40		641.73E-03
			-52.40		646.83E-03
			-49.40		651.61E-03
			-46.40		653.76E-03
			-43.40		655.97E-03
			-40.40		658.62E-03
			-37.40		663.24E-03
			-34.40		662.40E-03
			-31.40		663.71E-03
			-28.40		662.89E-03
			-25.40		665.37E-03
			-22.40		665.98E-03
			-19.40		667.21E-03
			-16.40		671.05E-03
			-13.40		671.71E-03
			0.00		668.65E-03
			13.40		670.96E-03
			16.40		667.05E-03
			19.40		667.07E-03
			22.40		665.60E-03
			25.40		664.57E-03
			28.40		663.43E-03
			31.40		660.47E-03
			34.40		657.19E-03
			37.40		659.40E-03
			40.40		656.70E-03
			43.40		652.83E-03
			46.40		650.07E-03
			49.40		642.99E-03
			52.40		635.14E-03
			55.40		617.69E-03
			58.40		589.58E-03
			61.40		516.68E-03
			64.40		345.12E-03
			67.40		154.08E-03
			70.40		69.429E-03
			73.40		46.149E-03
			76.40		36.091E-03
			79.40		30.868E-03
			82.40		27.143E-03
			85.40		23.834E-03
			88.40		22.020E-03
			91.40		20.079E-03
			94.40		17.526E-03
			97.40		15.729E-03
			100.40		14.357E-03
			103.40		13.541E-03
			106.40		12.040E-03
			109.40		11.154E-03
			112.40		9.7111E-03
			115.40		9.1842E-03
			118.40		8.2203E-03
			121.40		8.0057E-03
			124.40		7.7444E-03
			127.40		7.2720E-03
			130.40		6.8720E-03
			133.40		6.8136E-03
			136.40		5.2254E-03
			139.40		4.8138E-03
			142.40		4.5774E-03
			145.40		4.4994E-03
			148.40		4.6400E-03
			151.40		3.6579E-03
			154.40		3.8973E-03
			157.40		3.8222E-03
			160.40		2.6269E-03
			163.40		3.0189E-03
			166.40		3.2827E-03
			169.40		2.7948E-03
			172.40		3.0339E-03
		END_DATA
	END_SCAN  15
	BEGIN_SCAN  16
		TASK_NAME=MODE_INTERVAL
		PROGRAM=BeamAdjust 1.2
		MEAS_DATE=07-Oct-2010 14:00:56
		LINAC=A4
		MODALITY=X
		INPLANE_AXIS_DIR=GUN_TARGET
		CROSSPLANE_AXIS_DIR=LEFT_RIGHT
		DEPTH_AXIS_DIR=UP_DOWN
		ENERGY=6.00
		SSD=950.00
		WEDGE=None
		FIELD_INPLANE=100.00
		FIELD_CROSSPLANE=100.00
		FIELD_TYPE=RECTANGULAR
		GANTRY=0.00
		GANTRY_UPRIGHT_POSITION=0
		GANTRY_ROTATION=CW
		COLL_ANGLE=90.00
		COLL_OFFSET_INPLANE=0.00
		COLL_OFFSET_CROSSPLANE=0.00
		SCAN_DEVICE=STARCHECK
		ELECTROMETER=2D_ARRAY_INTERFACE
		DETECTOR=STARCHECK
		SCAN_CURVETYPE=INPLANE_PROFILE
		SCAN_DEPTH=0.00
		SCAN_OFFAXIS_CROSSPLANE=0.00
		SCAN_ANGLE=0.00
		SCAN_DIAGONAL=SECOND_DIAGONAL
		MEAS_PRESET=TIME_PRESET
		MEAS_TIME=10.000
		MEAS_UNIT=GY
		PRESSURE=1013.25
		TEMPERATURE=20.00
		NORM_TEMPERATURE=20.00
		CORRECTION_FACTOR=1.0000
		CORRECTIONS=AIR_DENSITY_CORR;
		BEGIN_DATA
			-172.40		3.0599E-03
			-169.40		3.2686E-03
			-166.40		3.6371E-03
			-163.40		2.8248E-03
			-160.40		3.4424E-03
			-157.40		3.8455E-03
			-154.40		4.1397E-03
			-151.40		3.9698E-03
			-148.40		4.2614E-03
			-145.40		4.3248E-03
			-142.40		4.9531E-03
			-139.40		5.3318E-03
			-136.40		5.4694E-03
			-133.40		6.1437E-03
			-130.40		6.3919E-03
			-127.40		7.2413E-03
			-124.40		8.5803E-03
			-121.40		8.4825E-03
			-118.40		9.0460E-03
			-115.40		9.2645E-03
			-112.40		9.7723E-03
			-109.40		11.234E-03
			-106.40		12.605E-03
			-103.40		13.471E-03
			-100.40		14.996E-03
			-97.40		16.117E-03
			-94.40		17.287E-03
			-91.40		19.778E-03
			-88.40		21.270E-03
			-85.40		24.052E-03
			-82.40		27.585E-03
			-79.40		31.277E-03
			-76.40		37.275E-03
			-73.40		48.901E-03
			-70.40		77.859E-03
			-67.40		186.20E-03
			-64.40		373.17E-03
			-61.40		523.24E-03
			-58.40		598.90E-03
			-55.40		625.14E-03
			-52.40		642.05E-03
			-49.40		649.40E-03
			-46.40		654.07E-03
			-43.40		657.90E-03
			-40.40		660.98E-03
			-37.40		664.26E-03
			-34.40		664.28E-03
			-31.40		665.55E-03
			-28.40		668.10E-03
			-25.40		666.88E-03
			-22.40		664.96E-03
			-19.40		668.27E-03
			-16.40		669.56E-03
			-13.40		672.43E-03
			0.00		668.65E-03
			13.40		672.97E-03
			16.40		670.03E-03
			19.40		666.19E-03
			22.40		663.30E-03
			25.40		663.46E-03
			28.40		662.24E-03
			31.40		660.66E-03
			34.40		657.97E-03
			37.40		657.65E-03
			40.40		656.42E-03
			43.40		654.31E-03
			46.40		652.90E-03
			49.40		648.99E-03
			52.40		641.27E-03
			55.40		633.73E-03
			58.40		624.78E-03
			61.40		600.68E-03
			64.40		541.89E-03
			67.40		418.43E-03
			70.40		250.33E-03
			73.40		110.86E-03
			76.40		59.053E-03
			79.40		42.251E-03
			82.40		35.159E-03
			85.40		30.217E-03
			88.40		26.797E-03
			91.40		24.112E-03
			94.40		21.339E-03
			97.40		19.361E-03
			100.40		16.646E-03
			103.40		15.253E-03
			106.40		14.465E-03
			109.40		13.168E-03
			112.40		11.898E-03
			115.40		10.879E-03
			118.40		10.182E-03
			121.40		9.4005E-03
			124.40		8.4116E-03
			127.40		7.8606E-03
			130.40		7.7966E-03
			133.40		7.0297E-03
			136.40		6.6123E-03
			139.40		6.8482E-03
			142.40		6.0687E-03
			145.40		5.5829E-03
			148.40		5.3327E-03
			151.40		4.7237E-03
			154.40		4.5274E-03
			157.40		4.1823E-03
			160.40		3.7032E-03
			163.40		3.8899E-03
			166.40		3.7562E-03
			169.40		2.8600E-03
			172.40		2.6573E-03
		END_DATA
	END_SCAN  16
END_SCAN_DATA
