BEGIN_SCAN_DATA
	FORMAT=CC-Export V1.9                  
	FILE_CREATION_DATE=07-Oct-2010 14:01:21
	LAST_MODIFIED=07-Oct-2010 14:01:21
	BEGIN_SCAN  1
		TASK_NAME=MODE_INTERVAL
		PROGRAM=BeamAdjust 1.2
		MEAS_DATE=07-Oct-2010 14:01:21
		LINAC=A4
		MODALITY=X
		INPLANE_AXIS_DIR=TARGET_GUN
		CROSSPLANE_AXIS_DIR=LEFT_RIGHT
		DEPTH_AXIS_DIR=UP_DOWN
		ENERGY=6.00
		SSD=950.00
		WEDGE=None
		FIELD_INPLANE=100.00
		FIELD_CROSSPLANE=100.00
		FIELD_TYPE=RECTANGULAR
		GANTRY=0.00
		GANTRY_UPRIGHT_POSITION=0
		GANTRY_ROTATION=CW
		COLL_ANGLE=90.00
		COLL_OFFSET_INPLANE=0.00
		COLL_OFFSET_CROSSPLANE=0.00
		SCAN_DEVICE=STARCHECK
		ELECTROMETER=2D_ARRAY_INTERFACE
		DETECTOR=STARCHECK
		SCAN_CURVETYPE=CROSSPLANE_PROFILE
		SCAN_DEPTH=0.00
		SCAN_OFFAXIS_INPLANE=-130.00
		SCAN_ANGLE=0.00
		SCAN_DIAGONAL=NOT_DIAGONAL
		MEAS_PRESET=TIME_PRESET
		MEAS_TIME=10.000
		MEAS_UNIT=GY
		PRESSURE=1013.25
		TEMPERATURE=20.00
		NORM_TEMPERATURE=20.00
		CORRECTION_FACTOR=1.0000
		CORRECTIONS=AIR_DENSITY_CORR;
		BEGIN_DATA
			-130.00		2.8342E-03
			-80.00		4.6079E-03
			-40.00		7.4857E-03
			40.00		6.4047E-03
			80.00		3.8026E-03
			130.00		1.7938E-03
		END_DATA
	END_SCAN  1
	BEGIN_SCAN  2
		TASK_NAME=MODE_INTERVAL
		PROGRAM=BeamAdjust 1.2
		MEAS_DATE=07-Oct-2010 14:01:21
		LINAC=A4
		MODALITY=X
		INPLANE_AXIS_DIR=TARGET_GUN
		CROSSPLANE_AXIS_DIR=LEFT_RIGHT
		DEPTH_AXIS_DIR=UP_DOWN
		ENERGY=6.00
		SSD=950.00
		WEDGE=None
		FIELD_INPLANE=100.00
		FIELD_CROSSPLANE=100.00
		FIELD_TYPE=RECTANGULAR
		GANTRY=0.00
		GANTRY_UPRIGHT_POSITION=0
		GANTRY_ROTATION=CW
		COLL_ANGLE=90.00
		COLL_OFFSET_INPLANE=0.00
		COLL_OFFSET_CROSSPLANE=0.00
		SCAN_DEVICE=STARCHECK
		ELECTROMETER=2D_ARRAY_INTERFACE
		DETECTOR=STARCHECK
		SCAN_CURVETYPE=CROSSPLANE_PROFILE
		SCAN_DEPTH=0.00
		SCAN_OFFAXIS_INPLANE=-100.00
		SCAN_ANGLE=0.00
		SCAN_DIAGONAL=NOT_DIAGONAL
		MEAS_PRESET=TIME_PRESET
		MEAS_TIME=10.000
		MEAS_UNIT=GY
		PRESSURE=1013.25
		TEMPERATURE=20.00
		NORM_TEMPERATURE=20.00
		CORRECTION_FACTOR=1.0000
		CORRECTIONS=AIR_DENSITY_CORR;
		BEGIN_DATA
			-60.00		11.740E-03
			-30.00		14.879E-03
			30.00		14.654E-03
			60.00		9.5282E-03
		END_DATA
	END_SCAN  2
	BEGIN_SCAN  3
		TASK_NAME=MODE_INTERVAL
		PROGRAM=BeamAdjust 1.2
		MEAS_DATE=07-Oct-2010 14:01:21
		LINAC=A4
		MODALITY=X
		INPLANE_AXIS_DIR=TARGET_GUN
		CROSSPLANE_AXIS_DIR=LEFT_RIGHT
		DEPTH_AXIS_DIR=UP_DOWN
		ENERGY=6.00
		SSD=950.00
		WEDGE=None
		FIELD_INPLANE=100.00
		FIELD_CROSSPLANE=100.00
		FIELD_TYPE=RECTANGULAR
		GANTRY=0.00
		GANTRY_UPRIGHT_POSITION=0
		GANTRY_ROTATION=CW
		COLL_ANGLE=90.00
		COLL_OFFSET_INPLANE=0.00
		COLL_OFFSET_CROSSPLANE=0.00
		SCAN_DEVICE=STARCHECK
		ELECTROMETER=2D_ARRAY_INTERFACE
		DETECTOR=STARCHECK
		SCAN_CURVETYPE=CROSSPLANE_PROFILE
		SCAN_DEPTH=0.00
		SCAN_OFFAXIS_INPLANE=-50.00
		SCAN_ANGLE=0.00
		SCAN_DIAGONAL=NOT_DIAGONAL
		MEAS_PRESET=TIME_PRESET
		MEAS_TIME=10.000
		MEAS_UNIT=GY
		PRESSURE=1013.25
		TEMPERATURE=20.00
		NORM_TEMPERATURE=20.00
		CORRECTION_FACTOR=1.0000
		CORRECTIONS=AIR_DENSITY_CORR;
		BEGIN_DATA
			-30.00		384.43E-03
			-15.00		370.50E-03
			15.00		385.83E-03
			30.00		374.51E-03
		END_DATA
	END_SCAN  3
	BEGIN_SCAN  4
		TASK_NAME=MODE_INTERVAL
		PROGRAM=BeamAdjust 1.2
		MEAS_DATE=07-Oct-2010 14:01:21
		LINAC=A4
		MODALITY=X
		INPLANE_AXIS_DIR=TARGET_GUN
		CROSSPLANE_AXIS_DIR=LEFT_RIGHT
		DEPTH_AXIS_DIR=UP_DOWN
		ENERGY=6.00
		SSD=950.00
		WEDGE=None
		FIELD_INPLANE=100.00
		FIELD_CROSSPLANE=100.00
		FIELD_TYPE=RECTANGULAR
		GANTRY=0.00
		GANTRY_UPRIGHT_POSITION=0
		GANTRY_ROTATION=CW
		COLL_ANGLE=90.00
		COLL_OFFSET_INPLANE=0.00
		COLL_OFFSET_CROSSPLANE=0.00
		SCAN_DEVICE=STARCHECK
		ELECTROMETER=2D_ARRAY_INTERFACE
		DETECTOR=STARCHECK
		SCAN_CURVETYPE=CROSSPLANE_PROFILE
		SCAN_DEPTH=0.00
		SCAN_OFFAXIS_INPLANE=0.00
		SCAN_ANGLE=0.00
		SCAN_DIAGONAL=NOT_DIAGONAL
		MEAS_PRESET=TIME_PRESET
		MEAS_TIME=10.000
		MEAS_UNIT=GY
		PRESSURE=1013.25
		TEMPERATURE=20.00
		NORM_TEMPERATURE=20.00
		CORRECTION_FACTOR=1.0000
		CORRECTIONS=AIR_DENSITY_CORR;
		BEGIN_DATA
			-126.00		7.1886E-03
			-123.00		8.2940E-03
			-120.00		8.5541E-03
			-117.00		9.4999E-03
			-114.00		9.6538E-03
			-111.00		10.239E-03
			-108.00		11.361E-03
			-105.00		12.231E-03
			-102.00		13.302E-03
			-99.00		14.424E-03
			-96.00		16.189E-03
			-93.00		17.413E-03
			-90.00		18.889E-03
			-87.00		20.614E-03
			-84.00		23.172E-03
			-81.00		24.688E-03
			-78.00		27.802E-03
			-75.00		31.404E-03
			-72.00		35.127E-03
			-69.00		40.507E-03
			-66.00		47.904E-03
			-63.00		58.300E-03
			-60.00		77.993E-03
			-57.00		130.56E-03
			-54.00		352.34E-03
			-51.00		576.97E-03
			-48.00		626.07E-03
			-45.00		639.95E-03
			-42.00		647.51E-03
			-39.00		655.09E-03
			-36.00		659.33E-03
			-33.00		658.67E-03
			-30.00		659.80E-03
			-27.00		661.91E-03
			-24.00		664.29E-03
			-21.00		664.52E-03
			-18.00		670.45E-03
			-15.00		669.58E-03
			-12.00		668.28E-03
			-9.00		669.48E-03
			-6.00		668.79E-03
			0.00		669.46E-03
			6.00		672.58E-03
			9.00		670.83E-03
			12.00		667.23E-03
			15.00		666.64E-03
			18.00		666.25E-03
			21.00		664.58E-03
			24.00		660.90E-03
			27.00		664.17E-03
			30.00		661.06E-03
			33.00		657.15E-03
			36.00		650.43E-03
			39.00		638.25E-03
			42.00		606.00E-03
			45.00		479.60E-03
			48.00		185.39E-03
			51.00		91.672E-03
			54.00		64.812E-03
			57.00		51.501E-03
			60.00		42.971E-03
			63.00		37.539E-03
			66.00		32.782E-03
			69.00		28.857E-03
			72.00		26.046E-03
			75.00		23.545E-03
			78.00		20.997E-03
			81.00		19.926E-03
			84.00		18.004E-03
			87.00		16.206E-03
			90.00		15.523E-03
			93.00		14.015E-03
			96.00		12.443E-03
			99.00		11.788E-03
			102.00		10.796E-03
			105.00		10.072E-03
			108.00		9.5968E-03
			111.00		8.6007E-03
			114.00		8.0916E-03
			117.00		7.6487E-03
			120.00		6.9578E-03
			123.00		7.2747E-03
			126.00		6.7867E-03
		END_DATA
	END_SCAN  4
	BEGIN_SCAN  5
		TASK_NAME=MODE_INTERVAL
		PROGRAM=BeamAdjust 1.2
		MEAS_DATE=07-Oct-2010 14:01:21
		LINAC=A4
		MODALITY=X
		INPLANE_AXIS_DIR=TARGET_GUN
		CROSSPLANE_AXIS_DIR=LEFT_RIGHT
		DEPTH_AXIS_DIR=UP_DOWN
		ENERGY=6.00
		SSD=950.00
		WEDGE=None
		FIELD_INPLANE=100.00
		FIELD_CROSSPLANE=100.00
		FIELD_TYPE=RECTANGULAR
		GANTRY=0.00
		GANTRY_UPRIGHT_POSITION=0
		GANTRY_ROTATION=CW
		COLL_ANGLE=90.00
		COLL_OFFSET_INPLANE=0.00
		COLL_OFFSET_CROSSPLANE=0.00
		SCAN_DEVICE=STARCHECK
		ELECTROMETER=2D_ARRAY_INTERFACE
		DETECTOR=STARCHECK
		SCAN_CURVETYPE=CROSSPLANE_PROFILE
		SCAN_DEPTH=0.00
		SCAN_OFFAXIS_INPLANE=50.00
		SCAN_ANGLE=0.00
		SCAN_DIAGONAL=NOT_DIAGONAL
		MEAS_PRESET=TIME_PRESET
		MEAS_TIME=10.000
		MEAS_UNIT=GY
		PRESSURE=1013.25
		TEMPERATURE=20.00
		NORM_TEMPERATURE=20.00
		CORRECTION_FACTOR=1.0000
		CORRECTIONS=AIR_DENSITY_CORR;
		BEGIN_DATA
			-30.00		269.47E-03
			-15.00		290.23E-03
			15.00		265.71E-03
			30.00		250.36E-03
		END_DATA
	END_SCAN  5
	BEGIN_SCAN  6
		TASK_NAME=MODE_INTERVAL
		PROGRAM=BeamAdjust 1.2
		MEAS_DATE=07-Oct-2010 14:01:21
		LINAC=A4
		MODALITY=X
		INPLANE_AXIS_DIR=TARGET_GUN
		CROSSPLANE_AXIS_DIR=LEFT_RIGHT
		DEPTH_AXIS_DIR=UP_DOWN
		ENERGY=6.00
		SSD=950.00
		WEDGE=None
		FIELD_INPLANE=100.00
		FIELD_CROSSPLANE=100.00
		FIELD_TYPE=RECTANGULAR
		GANTRY=0.00
		GANTRY_UPRIGHT_POSITION=0
		GANTRY_ROTATION=CW
		COLL_ANGLE=90.00
		COLL_OFFSET_INPLANE=0.00
		COLL_OFFSET_CROSSPLANE=0.00
		SCAN_DEVICE=STARCHECK
		ELECTROMETER=2D_ARRAY_INTERFACE
		DETECTOR=STARCHECK
		SCAN_CURVETYPE=CROSSPLANE_PROFILE
		SCAN_DEPTH=0.00
		SCAN_OFFAXIS_INPLANE=100.00
		SCAN_ANGLE=0.00
		SCAN_DIAGONAL=NOT_DIAGONAL
		MEAS_PRESET=TIME_PRESET
		MEAS_TIME=10.000
		MEAS_UNIT=GY
		PRESSURE=1013.25
		TEMPERATURE=20.00
		NORM_TEMPERATURE=20.00
		CORRECTION_FACTOR=1.0000
		CORRECTIONS=AIR_DENSITY_CORR;
		BEGIN_DATA
			-60.00		11.022E-03
			-30.00		14.934E-03
			30.00		14.258E-03
			60.00		8.6497E-03
		END_DATA
	END_SCAN  6
	BEGIN_SCAN  7
		TASK_NAME=MODE_INTERVAL
		PROGRAM=BeamAdjust 1.2
		MEAS_DATE=07-Oct-2010 14:01:21
		LINAC=A4
		MODALITY=X
		INPLANE_AXIS_DIR=TARGET_GUN
		CROSSPLANE_AXIS_DIR=LEFT_RIGHT
		DEPTH_AXIS_DIR=UP_DOWN
		ENERGY=6.00
		SSD=950.00
		WEDGE=None
		FIELD_INPLANE=100.00
		FIELD_CROSSPLANE=100.00
		FIELD_TYPE=RECTANGULAR
		GANTRY=0.00
		GANTRY_UPRIGHT_POSITION=0
		GANTRY_ROTATION=CW
		COLL_ANGLE=90.00
		COLL_OFFSET_INPLANE=0.00
		COLL_OFFSET_CROSSPLANE=0.00
		SCAN_DEVICE=STARCHECK
		ELECTROMETER=2D_ARRAY_INTERFACE
		DETECTOR=STARCHECK
		SCAN_CURVETYPE=CROSSPLANE_PROFILE
		SCAN_DEPTH=0.00
		SCAN_OFFAXIS_INPLANE=130.00
		SCAN_ANGLE=0.00
		SCAN_DIAGONAL=NOT_DIAGONAL
		MEAS_PRESET=TIME_PRESET
		MEAS_TIME=10.000
		MEAS_UNIT=GY
		PRESSURE=1013.25
		TEMPERATURE=20.00
		NORM_TEMPERATURE=20.00
		CORRECTION_FACTOR=1.0000
		CORRECTIONS=AIR_DENSITY_CORR;
		BEGIN_DATA
			-130.00		1.8832E-03
			-80.00		4.5613E-03
			-40.00		7.6009E-03
			40.00		6.2716E-03
			80.00		4.1593E-03
			130.00		2.1569E-03
		END_DATA
	END_SCAN  7
	BEGIN_SCAN  8
		TASK_NAME=MODE_INTERVAL
		PROGRAM=BeamAdjust 1.2
		MEAS_DATE=07-Oct-2010 14:01:21
		LINAC=A4
		MODALITY=X
		INPLANE_AXIS_DIR=TARGET_GUN
		CROSSPLANE_AXIS_DIR=LEFT_RIGHT
		DEPTH_AXIS_DIR=UP_DOWN
		ENERGY=6.00
		SSD=950.00
		WEDGE=None
		FIELD_INPLANE=100.00
		FIELD_CROSSPLANE=100.00
		FIELD_TYPE=RECTANGULAR
		GANTRY=0.00
		GANTRY_UPRIGHT_POSITION=0
		GANTRY_ROTATION=CW
		COLL_ANGLE=90.00
		COLL_OFFSET_INPLANE=0.00
		COLL_OFFSET_CROSSPLANE=0.00
		SCAN_DEVICE=STARCHECK
		ELECTROMETER=2D_ARRAY_INTERFACE
		DETECTOR=STARCHECK
		SCAN_CURVETYPE=INPLANE_PROFILE
		SCAN_DEPTH=0.00
		SCAN_OFFAXIS_CROSSPLANE=-130.00
		SCAN_ANGLE=0.00
		SCAN_DIAGONAL=NOT_DIAGONAL
		MEAS_PRESET=TIME_PRESET
		MEAS_TIME=10.000
		MEAS_UNIT=GY
		PRESSURE=1013.25
		TEMPERATURE=20.00
		NORM_TEMPERATURE=20.00
		CORRECTION_FACTOR=1.0000
		CORRECTIONS=AIR_DENSITY_CORR;
		BEGIN_DATA
			-130.00		2.8342E-03
			-125.00		2.9282E-03
			-120.00		3.2816E-03
			-115.00		3.3968E-03
			-110.00		3.4196E-03
			-105.00		3.8777E-03
			-100.00		4.5938E-03
			-95.00		4.7407E-03
			-90.00		5.2491E-03
			-85.00		4.6987E-03
			-80.00		4.8335E-03
			-75.00		5.1384E-03
			-70.00		5.1758E-03
			-65.00		5.4932E-03
			-60.00		5.7198E-03
			-55.00		6.5504E-03
			-50.00		4.8392E-03
			-45.00		5.1257E-03
			-40.00		5.0703E-03
			-35.00		5.8004E-03
			-30.00		5.9625E-03
			-25.00		5.7526E-03
			-20.00		5.7506E-03
			-15.00		5.5127E-03
			-10.00		5.8409E-03
			-5.00		6.4171E-03
			0.00		6.4160E-03
			5.00		6.8782E-03
			10.00		6.2626E-03
			15.00		5.9989E-03
			20.00		6.3759E-03
			25.00		5.5123E-03
			30.00		5.8678E-03
			35.00		6.1186E-03
			40.00		5.4068E-03
			45.00		5.3327E-03
			50.00		5.5769E-03
			55.00		4.9654E-03
			60.00		4.9561E-03
			65.00		4.3465E-03
			70.00		4.0949E-03
			75.00		4.1799E-03
			80.00		4.0054E-03
			85.00		4.0954E-03
			90.00		3.7134E-03
			95.00		3.5960E-03
			100.00		3.4283E-03
			105.00		3.3905E-03
			110.00		2.8229E-03
			115.00		2.6678E-03
			120.00		2.7193E-03
			125.00		2.7536E-03
			130.00		1.8832E-03
		END_DATA
	END_SCAN  8
	BEGIN_SCAN  9
		TASK_NAME=MODE_INTERVAL
		PROGRAM=BeamAdjust 1.2
		MEAS_DATE=07-Oct-2010 14:01:21
		LINAC=A4
		MODALITY=X
		INPLANE_AXIS_DIR=TARGET_GUN
		CROSSPLANE_AXIS_DIR=LEFT_RIGHT
		DEPTH_AXIS_DIR=UP_DOWN
		ENERGY=6.00
		SSD=950.00
		WEDGE=None
		FIELD_INPLANE=100.00
		FIELD_CROSSPLANE=100.00
		FIELD_TYPE=RECTANGULAR
		GANTRY=0.00
		GANTRY_UPRIGHT_POSITION=0
		GANTRY_ROTATION=CW
		COLL_ANGLE=90.00
		COLL_OFFSET_INPLANE=0.00
		COLL_OFFSET_CROSSPLANE=0.00
		SCAN_DEVICE=STARCHECK
		ELECTROMETER=2D_ARRAY_INTERFACE
		DETECTOR=STARCHECK
		SCAN_CURVETYPE=INPLANE_PROFILE
		SCAN_DEPTH=0.00
		SCAN_OFFAXIS_CROSSPLANE=-100.00
		SCAN_ANGLE=0.00
		SCAN_DIAGONAL=NOT_DIAGONAL
		MEAS_PRESET=TIME_PRESET
		MEAS_TIME=10.000
		MEAS_UNIT=GY
		PRESSURE=1013.25
		TEMPERATURE=20.00
		NORM_TEMPERATURE=20.00
		CORRECTION_FACTOR=1.0000
		CORRECTIONS=AIR_DENSITY_CORR;
		BEGIN_DATA
			-60.00		9.2034E-03
			-30.00		11.641E-03
			30.00		11.471E-03
			60.00		9.1966E-03
		END_DATA
	END_SCAN  9
	BEGIN_SCAN  10
		TASK_NAME=MODE_INTERVAL
		PROGRAM=BeamAdjust 1.2
		MEAS_DATE=07-Oct-2010 14:01:21
		LINAC=A4
		MODALITY=X
		INPLANE_AXIS_DIR=TARGET_GUN
		CROSSPLANE_AXIS_DIR=LEFT_RIGHT
		DEPTH_AXIS_DIR=UP_DOWN
		ENERGY=6.00
		SSD=950.00
		WEDGE=None
		FIELD_INPLANE=100.00
		FIELD_CROSSPLANE=100.00
		FIELD_TYPE=RECTANGULAR
		GANTRY=0.00
		GANTRY_UPRIGHT_POSITION=0
		GANTRY_ROTATION=CW
		COLL_ANGLE=90.00
		COLL_OFFSET_INPLANE=0.00
		COLL_OFFSET_CROSSPLANE=0.00
		SCAN_DEVICE=STARCHECK
		ELECTROMETER=2D_ARRAY_INTERFACE
		DETECTOR=STARCHECK
		SCAN_CURVETYPE=INPLANE_PROFILE
		SCAN_DEPTH=0.00
		SCAN_OFFAXIS_CROSSPLANE=-50.00
		SCAN_ANGLE=0.00
		SCAN_DIAGONAL=NOT_DIAGONAL
		MEAS_PRESET=TIME_PRESET
		MEAS_TIME=10.000
		MEAS_UNIT=GY
		PRESSURE=1013.25
		TEMPERATURE=20.00
		NORM_TEMPERATURE=20.00
		CORRECTION_FACTOR=1.0000
		CORRECTIONS=AIR_DENSITY_CORR;
		BEGIN_DATA
			-30.00		611.56E-03
			-15.00		611.73E-03
			15.00		610.15E-03
			30.00		602.64E-03
		END_DATA
	END_SCAN  10
	BEGIN_SCAN  11
		TASK_NAME=MODE_INTERVAL
		PROGRAM=BeamAdjust 1.2
		MEAS_DATE=07-Oct-2010 14:01:21
		LINAC=A4
		MODALITY=X
		INPLANE_AXIS_DIR=TARGET_GUN
		CROSSPLANE_AXIS_DIR=LEFT_RIGHT
		DEPTH_AXIS_DIR=UP_DOWN
		ENERGY=6.00
		SSD=950.00
		WEDGE=None
		FIELD_INPLANE=100.00
		FIELD_CROSSPLANE=100.00
		FIELD_TYPE=RECTANGULAR
		GANTRY=0.00
		GANTRY_UPRIGHT_POSITION=0
		GANTRY_ROTATION=CW
		COLL_ANGLE=90.00
		COLL_OFFSET_INPLANE=0.00
		COLL_OFFSET_CROSSPLANE=0.00
		SCAN_DEVICE=STARCHECK
		ELECTROMETER=2D_ARRAY_INTERFACE
		DETECTOR=STARCHECK
		SCAN_CURVETYPE=INPLANE_PROFILE
		SCAN_DEPTH=0.00
		SCAN_OFFAXIS_CROSSPLANE=0.00
		SCAN_ANGLE=0.00
		SCAN_DIAGONAL=NOT_DIAGONAL
		MEAS_PRESET=TIME_PRESET
		MEAS_TIME=10.000
		MEAS_UNIT=GY
		PRESSURE=1013.25
		TEMPERATURE=20.00
		NORM_TEMPERATURE=20.00
		CORRECTION_FACTOR=1.0000
		CORRECTIONS=AIR_DENSITY_CORR;
		BEGIN_DATA
			-126.00		9.3108E-03
			-123.00		9.2175E-03
			-120.00		10.443E-03
			-117.00		11.456E-03
			-114.00		11.773E-03
			-111.00		12.519E-03
			-108.00		13.482E-03
			-105.00		14.504E-03
			-102.00		15.988E-03
			-99.00		16.450E-03
			-96.00		18.080E-03
			-93.00		20.585E-03
			-90.00		21.568E-03
			-87.00		23.450E-03
			-84.00		25.932E-03
			-81.00		28.269E-03
			-78.00		30.668E-03
			-75.00		32.987E-03
			-72.00		36.441E-03
			-69.00		40.259E-03
			-66.00		45.859E-03
			-63.00		52.302E-03
			-60.00		62.804E-03
			-57.00		82.090E-03
			-54.00		130.97E-03
			-51.00		295.55E-03
			-48.00		551.57E-03
			-45.00		623.18E-03
			-42.00		643.74E-03
			-39.00		653.04E-03
			-36.00		658.62E-03
			-33.00		662.23E-03
			-30.00		665.73E-03
			-27.00		667.14E-03
			-24.00		666.50E-03
			-21.00		665.55E-03
			-18.00		672.09E-03
			-15.00		670.25E-03
			-12.00		671.83E-03
			-9.00		672.55E-03
			-6.00		669.63E-03
			0.00		669.46E-03
			6.00		673.45E-03
			9.00		672.49E-03
			12.00		671.55E-03
			15.00		669.38E-03
			18.00		665.32E-03
			21.00		665.05E-03
			24.00		661.49E-03
			27.00		662.96E-03
			30.00		659.05E-03
			33.00		656.85E-03
			36.00		654.61E-03
			39.00		643.35E-03
			42.00		632.13E-03
			45.00		598.99E-03
			48.00		441.01E-03
			51.00		192.36E-03
			54.00		99.286E-03
			57.00		70.368E-03
			60.00		57.336E-03
			63.00		48.885E-03
			66.00		43.769E-03
			69.00		38.826E-03
			72.00		35.136E-03
			75.00		31.917E-03
			78.00		28.485E-03
			81.00		26.372E-03
			84.00		24.659E-03
			87.00		22.427E-03
			90.00		21.035E-03
			93.00		19.496E-03
			96.00		18.181E-03
			99.00		16.610E-03
			102.00		15.127E-03
			105.00		14.253E-03
			108.00		13.476E-03
			111.00		12.093E-03
			114.00		11.573E-03
			117.00		10.962E-03
			120.00		10.308E-03
			123.00		10.076E-03
			126.00		8.6723E-03
		END_DATA
	END_SCAN  11
	BEGIN_SCAN  12
		TASK_NAME=MODE_INTERVAL
		PROGRAM=BeamAdjust 1.2
		MEAS_DATE=07-Oct-2010 14:01:21
		LINAC=A4
		MODALITY=X
		INPLANE_AXIS_DIR=TARGET_GUN
		CROSSPLANE_AXIS_DIR=LEFT_RIGHT
		DEPTH_AXIS_DIR=UP_DOWN
		ENERGY=6.00
		SSD=950.00
		WEDGE=None
		FIELD_INPLANE=100.00
		FIELD_CROSSPLANE=100.00
		FIELD_TYPE=RECTANGULAR
		GANTRY=0.00
		GANTRY_UPRIGHT_POSITION=0
		GANTRY_ROTATION=CW
		COLL_ANGLE=90.00
		COLL_OFFSET_INPLANE=0.00
		COLL_OFFSET_CROSSPLANE=0.00
		SCAN_DEVICE=STARCHECK
		ELECTROMETER=2D_ARRAY_INTERFACE
		DETECTOR=STARCHECK
		SCAN_CURVETYPE=INPLANE_PROFILE
		SCAN_DEPTH=0.00
		SCAN_OFFAXIS_CROSSPLANE=50.00
		SCAN_ANGLE=0.00
		SCAN_DIAGONAL=NOT_DIAGONAL
		MEAS_PRESET=TIME_PRESET
		MEAS_TIME=10.000
		MEAS_UNIT=GY
		PRESSURE=1013.25
		TEMPERATURE=20.00
		NORM_TEMPERATURE=20.00
		CORRECTION_FACTOR=1.0000
		CORRECTIONS=AIR_DENSITY_CORR;
		BEGIN_DATA
			-30.00		94.761E-03
			-15.00		101.32E-03
			15.00		104.25E-03
			30.00		101.13E-03
		END_DATA
	END_SCAN  12
	BEGIN_SCAN  13
		TASK_NAME=MODE_INTERVAL
		PROGRAM=BeamAdjust 1.2
		MEAS_DATE=07-Oct-2010 14:01:21
		LINAC=A4
		MODALITY=X
		INPLANE_AXIS_DIR=TARGET_GUN
		CROSSPLANE_AXIS_DIR=LEFT_RIGHT
		DEPTH_AXIS_DIR=UP_DOWN
		ENERGY=6.00
		SSD=950.00
		WEDGE=None
		FIELD_INPLANE=100.00
		FIELD_CROSSPLANE=100.00
		FIELD_TYPE=RECTANGULAR
		GANTRY=0.00
		GANTRY_UPRIGHT_POSITION=0
		GANTRY_ROTATION=CW
		COLL_ANGLE=90.00
		COLL_OFFSET_INPLANE=0.00
		COLL_OFFSET_CROSSPLANE=0.00
		SCAN_DEVICE=STARCHECK
		ELECTROMETER=2D_ARRAY_INTERFACE
		DETECTOR=STARCHECK
		SCAN_CURVETYPE=INPLANE_PROFILE
		SCAN_DEPTH=0.00
		SCAN_OFFAXIS_CROSSPLANE=100.00
		SCAN_ANGLE=0.00
		SCAN_DIAGONAL=NOT_DIAGONAL
		MEAS_PRESET=TIME_PRESET
		MEAS_TIME=10.000
		MEAS_UNIT=GY
		PRESSURE=1013.25
		TEMPERATURE=20.00
		NORM_TEMPERATURE=20.00
		CORRECTION_FACTOR=1.0000
		CORRECTIONS=AIR_DENSITY_CORR;
		BEGIN_DATA
			-60.00		7.7345E-03
			-30.00		9.7157E-03
			30.00		9.4309E-03
			60.00		6.7973E-03
		END_DATA
	END_SCAN  13
	BEGIN_SCAN  14
		TASK_NAME=MODE_INTERVAL
		PROGRAM=BeamAdjust 1.2
		MEAS_DATE=07-Oct-2010 14:01:21
		LINAC=A4
		MODALITY=X
		INPLANE_AXIS_DIR=TARGET_GUN
		CROSSPLANE_AXIS_DIR=LEFT_RIGHT
		DEPTH_AXIS_DIR=UP_DOWN
		ENERGY=6.00
		SSD=950.00
		WEDGE=None
		FIELD_INPLANE=100.00
		FIELD_CROSSPLANE=100.00
		FIELD_TYPE=RECTANGULAR
		GANTRY=0.00
		GANTRY_UPRIGHT_POSITION=0
		GANTRY_ROTATION=CW
		COLL_ANGLE=90.00
		COLL_OFFSET_INPLANE=0.00
		COLL_OFFSET_CROSSPLANE=0.00
		SCAN_DEVICE=STARCHECK
		ELECTROMETER=2D_ARRAY_INTERFACE
		DETECTOR=STARCHECK
		SCAN_CURVETYPE=INPLANE_PROFILE
		SCAN_DEPTH=0.00
		SCAN_OFFAXIS_CROSSPLANE=130.00
		SCAN_ANGLE=0.00
		SCAN_DIAGONAL=NOT_DIAGONAL
		MEAS_PRESET=TIME_PRESET
		MEAS_TIME=10.000
		MEAS_UNIT=GY
		PRESSURE=1013.25
		TEMPERATURE=20.00
		NORM_TEMPERATURE=20.00
		CORRECTION_FACTOR=1.0000
		CORRECTIONS=AIR_DENSITY_CORR;
		BEGIN_DATA
			-130.00		1.7938E-03
			-125.00		2.3564E-03
			-120.00		2.0783E-03
			-115.00		2.4573E-03
			-110.00		2.8013E-03
			-105.00		2.6612E-03
			-100.00		2.9971E-03
			-95.00		2.7418E-03
			-90.00		3.3544E-03
			-85.00		3.8947E-03
			-80.00		3.5442E-03
			-75.00		3.3824E-03
			-70.00		3.8026E-03
			-65.00		3.6750E-03
			-60.00		4.5239E-03
			-55.00		4.2292E-03
			-50.00		4.2930E-03
			-45.00		4.8345E-03
			-40.00		4.9230E-03
			-35.00		5.0968E-03
			-30.00		4.8955E-03
			-25.00		4.9238E-03
			-20.00		5.5038E-03
			-15.00		4.8468E-03
			-10.00		4.4259E-03
			-5.00		5.3539E-03
			0.00		5.6701E-03
			5.00		5.2326E-03
			10.00		5.4303E-03
			15.00		4.9096E-03
			20.00		5.0908E-03
			25.00		5.2374E-03
			30.00		4.5188E-03
			35.00		4.7268E-03
			40.00		5.1591E-03
			45.00		4.4762E-03
			50.00		4.7779E-03
			55.00		4.7401E-03
			60.00		4.2933E-03
			65.00		4.0403E-03
			70.00		3.7063E-03
			75.00		3.9109E-03
			80.00		3.6389E-03
			85.00		3.5688E-03
			90.00		3.2603E-03
			95.00		3.0624E-03
			100.00		3.4264E-03
			105.00		2.7950E-03
			110.00		2.5068E-03
			115.00		2.4780E-03
			120.00		3.0029E-03
			125.00		2.1518E-03
			130.00		2.1569E-03
		END_DATA
	END_SCAN  14
	BEGIN_SCAN  15
		TASK_NAME=MODE_INTERVAL
		PROGRAM=BeamAdjust 1.2
		MEAS_DATE=07-Oct-2010 14:01:21
		LINAC=A4
		MODALITY=X
		INPLANE_AXIS_DIR=TARGET_GUN
		CROSSPLANE_AXIS_DIR=LEFT_RIGHT
		DEPTH_AXIS_DIR=UP_DOWN
		ENERGY=6.00
		SSD=950.00
		WEDGE=None
		FIELD_INPLANE=100.00
		FIELD_CROSSPLANE=100.00
		FIELD_TYPE=RECTANGULAR
		GANTRY=0.00
		GANTRY_UPRIGHT_POSITION=0
		GANTRY_ROTATION=CW
		COLL_ANGLE=90.00
		COLL_OFFSET_INPLANE=0.00
		COLL_OFFSET_CROSSPLANE=0.00
		SCAN_DEVICE=STARCHECK
		ELECTROMETER=2D_ARRAY_INTERFACE
		DETECTOR=STARCHECK
		SCAN_CURVETYPE=INPLANE_PROFILE
		SCAN_DEPTH=0.00
		SCAN_OFFAXIS_CROSSPLANE=0.00
		SCAN_ANGLE=0.00
		SCAN_DIAGONAL=FIRST_DIAGONAL
		MEAS_PRESET=TIME_PRESET
		MEAS_TIME=10.000
		MEAS_UNIT=GY
		PRESSURE=1013.25
		TEMPERATURE=20.00
		NORM_TEMPERATURE=20.00
		CORRECTION_FACTOR=1.0000
		CORRECTIONS=AIR_DENSITY_CORR;
		BEGIN_DATA
			-172.40		2.6932E-03
			-169.40		3.0775E-03
			-166.40		3.9219E-03
			-163.40		3.8779E-03
			-160.40		4.4324E-03
			-157.40		4.4834E-03
			-154.40		4.3254E-03
			-151.40		4.1858E-03
			-148.40		5.0271E-03
			-145.40		5.6975E-03
			-142.40		6.0366E-03
			-139.40		6.5205E-03
			-136.40		6.6663E-03
			-133.40		7.3075E-03
			-130.40		7.8529E-03
			-127.40		8.2591E-03
			-124.40		8.8418E-03
			-121.40		9.7460E-03
			-118.40		10.798E-03
			-115.40		11.726E-03
			-112.40		12.449E-03
			-109.40		13.861E-03
			-106.40		14.990E-03
			-103.40		16.078E-03
			-100.40		17.691E-03
			-97.40		20.248E-03
			-94.40		22.329E-03
			-91.40		24.688E-03
			-88.40		28.026E-03
			-85.40		32.133E-03
			-82.40		38.399E-03
			-79.40		49.380E-03
			-76.40		78.311E-03
			-73.40		180.80E-03
			-70.40		362.40E-03
			-67.40		511.35E-03
			-64.40		589.00E-03
			-61.40		619.12E-03
			-58.40		633.19E-03
			-55.40		642.81E-03
			-52.40		647.73E-03
			-49.40		652.49E-03
			-46.40		654.39E-03
			-43.40		656.65E-03
			-40.40		659.15E-03
			-37.40		663.89E-03
			-34.40		662.84E-03
			-31.40		664.42E-03
			-28.40		662.79E-03
			-25.40		665.32E-03
			-22.40		666.42E-03
			-19.40		667.49E-03
			-16.40		670.74E-03
			-13.40		672.48E-03
			0.00		669.46E-03
			13.40		671.54E-03
			16.40		667.56E-03
			19.40		667.69E-03
			22.40		666.36E-03
			25.40		665.21E-03
			28.40		663.92E-03
			31.40		660.94E-03
			34.40		657.79E-03
			37.40		659.96E-03
			40.40		656.77E-03
			43.40		653.44E-03
			46.40		650.35E-03
			49.40		642.83E-03
			52.40		635.32E-03
			55.40		616.42E-03
			58.40		585.82E-03
			61.40		503.91E-03
			64.40		327.06E-03
			67.40		143.14E-03
			70.40		66.306E-03
			73.40		44.984E-03
			76.40		35.634E-03
			79.40		30.583E-03
			82.40		26.730E-03
			85.40		23.524E-03
			88.40		21.463E-03
			91.40		19.049E-03
			94.40		18.032E-03
			97.40		15.738E-03
			100.40		14.390E-03
			103.40		13.591E-03
			106.40		12.404E-03
			109.40		11.230E-03
			112.40		9.9279E-03
			115.40		9.3494E-03
			118.40		8.3829E-03
			121.40		7.8810E-03
			124.40		7.6034E-03
			127.40		7.1520E-03
			130.40		7.1088E-03
			133.40		5.9382E-03
			136.40		5.4933E-03
			139.40		4.7503E-03
			142.40		4.6779E-03
			145.40		4.6316E-03
			148.40		4.7376E-03
			151.40		3.8023E-03
			154.40		3.8228E-03
			157.40		3.8014E-03
			160.40		2.6640E-03
			163.40		2.6944E-03
			166.40		2.8826E-03
			169.40		2.8127E-03
			172.40		2.8444E-03
		END_DATA
	END_SCAN  15
	BEGIN_SCAN  16
		TASK_NAME=MODE_INTERVAL
		PROGRAM=BeamAdjust 1.2
		MEAS_DATE=07-Oct-2010 14:01:21
		LINAC=A4
		MODALITY=X
		INPLANE_AXIS_DIR=GUN_TARGET
		CROSSPLANE_AXIS_DIR=LEFT_RIGHT
		DEPTH_AXIS_DIR=UP_DOWN
		ENERGY=6.00
		SSD=950.00
		WEDGE=None
		FIELD_INPLANE=100.00
		FIELD_CROSSPLANE=100.00
		FIELD_TYPE=RECTANGULAR
		GANTRY=0.00
		GANTRY_UPRIGHT_POSITION=0
		GANTRY_ROTATION=CW
		COLL_ANGLE=90.00
		COLL_OFFSET_INPLANE=0.00
		COLL_OFFSET_CROSSPLANE=0.00
		SCAN_DEVICE=STARCHECK
		ELECTROMETER=2D_ARRAY_INTERFACE
		DETECTOR=STARCHECK
		SCAN_CURVETYPE=INPLANE_PROFILE
		SCAN_DEPTH=0.00
		SCAN_OFFAXIS_CROSSPLANE=0.00
		SCAN_ANGLE=0.00
		SCAN_DIAGONAL=SECOND_DIAGONAL
		MEAS_PRESET=TIME_PRESET
		MEAS_TIME=10.000
		MEAS_UNIT=GY
		PRESSURE=1013.25
		TEMPERATURE=20.00
		NORM_TEMPERATURE=20.00
		CORRECTION_FACTOR=1.0000
		CORRECTIONS=AIR_DENSITY_CORR;
		BEGIN_DATA
			-172.40		2.6615E-03
			-169.40		3.4569E-03
			-166.40		3.1007E-03
			-163.40		3.2689E-03
			-160.40		3.5272E-03
			-157.40		3.6405E-03
			-154.40		3.7913E-03
			-151.40		3.9921E-03
			-148.40		4.5976E-03
			-145.40		4.6093E-03
			-142.40		5.0965E-03
			-139.40		5.0470E-03
			-136.40		5.3656E-03
			-133.40		6.1333E-03
			-130.40		6.3608E-03
			-127.40		7.4853E-03
			-124.40		7.7246E-03
			-121.40		8.4631E-03
			-118.40		9.0416E-03
			-115.40		9.4247E-03
			-112.40		9.5431E-03
			-109.40		10.959E-03
			-106.40		12.073E-03
			-103.40		13.086E-03
			-100.40		14.571E-03
			-97.40		15.839E-03
			-94.40		17.323E-03
			-91.40		19.484E-03
			-88.40		21.185E-03
			-85.40		24.043E-03
			-82.40		26.516E-03
			-79.40		30.690E-03
			-76.40		36.761E-03
			-73.40		47.740E-03
			-70.40		73.757E-03
			-67.40		170.06E-03
			-64.40		351.85E-03
			-61.40		508.22E-03
			-58.40		593.78E-03
			-55.40		623.64E-03
			-52.40		641.34E-03
			-49.40		649.02E-03
			-46.40		654.22E-03
			-43.40		658.43E-03
			-40.40		660.58E-03
			-37.40		664.33E-03
			-34.40		664.47E-03
			-31.40		665.86E-03
			-28.40		668.48E-03
			-25.40		667.33E-03
			-22.40		665.41E-03
			-19.40		668.72E-03
			-16.40		669.93E-03
			-13.40		673.06E-03
			0.00		669.46E-03
			13.40		673.73E-03
			16.40		670.52E-03
			19.40		667.02E-03
			22.40		664.37E-03
			25.40		663.94E-03
			28.40		662.96E-03
			31.40		661.53E-03
			34.40		658.90E-03
			37.40		658.69E-03
			40.40		657.25E-03
			43.40		655.42E-03
			46.40		653.81E-03
			49.40		650.25E-03
			52.40		642.57E-03
			55.40		634.98E-03
			58.40		626.28E-03
			61.40		602.24E-03
			64.40		544.27E-03
			67.40		422.47E-03
			70.40		257.47E-03
			73.40		116.24E-03
			76.40		61.035E-03
			79.40		43.263E-03
			82.40		35.684E-03
			85.40		30.472E-03
			88.40		26.703E-03
			91.40		23.910E-03
			94.40		21.174E-03
			97.40		19.595E-03
			100.40		16.761E-03
			103.40		15.488E-03
			106.40		14.888E-03
			109.40		13.263E-03
			112.40		12.026E-03
			115.40		10.804E-03
			118.40		10.010E-03
			121.40		8.9759E-03
			124.40		8.4146E-03
			127.40		7.8127E-03
			130.40		7.8444E-03
			133.40		7.0805E-03
			136.40		6.4750E-03
			139.40		6.4966E-03
			142.40		6.1494E-03
			145.40		6.1502E-03
			148.40		5.1312E-03
			151.40		4.5753E-03
			154.40		4.5650E-03
			157.40		4.1057E-03
			160.40		4.0176E-03
			163.40		4.2429E-03
			166.40		3.8137E-03
			169.40		3.1808E-03
			172.40		2.9908E-03
		END_DATA
	END_SCAN  16
END_SCAN_DATA
