BEGIN_SCAN_DATA
	FORMAT=CC-Export V1.9                  
	FILE_CREATION_DATE=07-Oct-2010 14:01:54
	LAST_MODIFIED=07-Oct-2010 14:01:54
	BEGIN_SCAN  1
		TASK_NAME=MODE_INTERVAL
		PROGRAM=BeamAdjust 1.2
		MEAS_DATE=07-Oct-2010 14:01:54
		LINAC=A4
		MODALITY=X
		INPLANE_AXIS_DIR=TARGET_GUN
		CROSSPLANE_AXIS_DIR=LEFT_RIGHT
		DEPTH_AXIS_DIR=UP_DOWN
		ENERGY=6.00
		SSD=950.00
		WEDGE=None
		FIELD_INPLANE=100.00
		FIELD_CROSSPLANE=100.00
		FIELD_TYPE=RECTANGULAR
		GANTRY=0.00
		GANTRY_UPRIGHT_POSITION=0
		GANTRY_ROTATION=CW
		COLL_ANGLE=90.00
		COLL_OFFSET_INPLANE=0.00
		COLL_OFFSET_CROSSPLANE=0.00
		SCAN_DEVICE=STARCHECK
		ELECTROMETER=2D_ARRAY_INTERFACE
		DETECTOR=STARCHECK
		SCAN_CURVETYPE=CROSSPLANE_PROFILE
		SCAN_DEPTH=0.00
		SCAN_OFFAXIS_INPLANE=-130.00
		SCAN_ANGLE=0.00
		SCAN_DIAGONAL=NOT_DIAGONAL
		MEAS_PRESET=TIME_PRESET
		MEAS_TIME=10.000
		MEAS_UNIT=GY
		PRESSURE=1013.25
		TEMPERATURE=20.00
		NORM_TEMPERATURE=20.00
		CORRECTION_FACTOR=1.0000
		CORRECTIONS=AIR_DENSITY_CORR;
		BEGIN_DATA
			-130.00		2.6218E-03
			-80.00		4.6169E-03
			-40.00		7.4092E-03
			40.00		6.4437E-03
			80.00		3.8786E-03
			130.00		1.6921E-03
		END_DATA
	END_SCAN  1
	BEGIN_SCAN  2
		TASK_NAME=MODE_INTERVAL
		PROGRAM=BeamAdjust 1.2
		MEAS_DATE=07-Oct-2010 14:01:54
		LINAC=A4
		MODALITY=X
		INPLANE_AXIS_DIR=TARGET_GUN
		CROSSPLANE_AXIS_DIR=LEFT_RIGHT
		DEPTH_AXIS_DIR=UP_DOWN
		ENERGY=6.00
		SSD=950.00
		WEDGE=None
		FIELD_INPLANE=100.00
		FIELD_CROSSPLANE=100.00
		FIELD_TYPE=RECTANGULAR
		GANTRY=0.00
		GANTRY_UPRIGHT_POSITION=0
		GANTRY_ROTATION=CW
		COLL_ANGLE=90.00
		COLL_OFFSET_INPLANE=0.00
		COLL_OFFSET_CROSSPLANE=0.00
		SCAN_DEVICE=STARCHECK
		ELECTROMETER=2D_ARRAY_INTERFACE
		DETECTOR=STARCHECK
		SCAN_CURVETYPE=CROSSPLANE_PROFILE
		SCAN_DEPTH=0.00
		SCAN_OFFAXIS_INPLANE=-100.00
		SCAN_ANGLE=0.00
		SCAN_DIAGONAL=NOT_DIAGONAL
		MEAS_PRESET=TIME_PRESET
		MEAS_TIME=10.000
		MEAS_UNIT=GY
		PRESSURE=1013.25
		TEMPERATURE=20.00
		NORM_TEMPERATURE=20.00
		CORRECTION_FACTOR=1.0000
		CORRECTIONS=AIR_DENSITY_CORR;
		BEGIN_DATA
			-60.00		11.045E-03
			-30.00		14.359E-03
			30.00		14.551E-03
			60.00		9.4363E-03
		END_DATA
	END_SCAN  2
	BEGIN_SCAN  3
		TASK_NAME=MODE_INTERVAL
		PROGRAM=BeamAdjust 1.2
		MEAS_DATE=07-Oct-2010 14:01:54
		LINAC=A4
		MODALITY=X
		INPLANE_AXIS_DIR=TARGET_GUN
		CROSSPLANE_AXIS_DIR=LEFT_RIGHT
		DEPTH_AXIS_DIR=UP_DOWN
		ENERGY=6.00
		SSD=950.00
		WEDGE=None
		FIELD_INPLANE=100.00
		FIELD_CROSSPLANE=100.00
		FIELD_TYPE=RECTANGULAR
		GANTRY=0.00
		GANTRY_UPRIGHT_POSITION=0
		GANTRY_ROTATION=CW
		COLL_ANGLE=90.00
		COLL_OFFSET_INPLANE=0.00
		COLL_OFFSET_CROSSPLANE=0.00
		SCAN_DEVICE=STARCHECK
		ELECTROMETER=2D_ARRAY_INTERFACE
		DETECTOR=STARCHECK
		SCAN_CURVETYPE=CROSSPLANE_PROFILE
		SCAN_DEPTH=0.00
		SCAN_OFFAXIS_INPLANE=-50.00
		SCAN_ANGLE=0.00
		SCAN_DIAGONAL=NOT_DIAGONAL
		MEAS_PRESET=TIME_PRESET
		MEAS_TIME=10.000
		MEAS_UNIT=GY
		PRESSURE=1013.25
		TEMPERATURE=20.00
		NORM_TEMPERATURE=20.00
		CORRECTION_FACTOR=1.0000
		CORRECTIONS=AIR_DENSITY_CORR;
		BEGIN_DATA
			-30.00		382.62E-03
			-15.00		371.27E-03
			15.00		385.86E-03
			30.00		373.20E-03
		END_DATA
	END_SCAN  3
	BEGIN_SCAN  4
		TASK_NAME=MODE_INTERVAL
		PROGRAM=BeamAdjust 1.2
		MEAS_DATE=07-Oct-2010 14:01:54
		LINAC=A4
		MODALITY=X
		INPLANE_AXIS_DIR=TARGET_GUN
		CROSSPLANE_AXIS_DIR=LEFT_RIGHT
		DEPTH_AXIS_DIR=UP_DOWN
		ENERGY=6.00
		SSD=950.00
		WEDGE=None
		FIELD_INPLANE=100.00
		FIELD_CROSSPLANE=100.00
		FIELD_TYPE=RECTANGULAR
		GANTRY=0.00
		GANTRY_UPRIGHT_POSITION=0
		GANTRY_ROTATION=CW
		COLL_ANGLE=90.00
		COLL_OFFSET_INPLANE=0.00
		COLL_OFFSET_CROSSPLANE=0.00
		SCAN_DEVICE=STARCHECK
		ELECTROMETER=2D_ARRAY_INTERFACE
		DETECTOR=STARCHECK
		SCAN_CURVETYPE=CROSSPLANE_PROFILE
		SCAN_DEPTH=0.00
		SCAN_OFFAXIS_INPLANE=0.00
		SCAN_ANGLE=0.00
		SCAN_DIAGONAL=NOT_DIAGONAL
		MEAS_PRESET=TIME_PRESET
		MEAS_TIME=10.000
		MEAS_UNIT=GY
		PRESSURE=1013.25
		TEMPERATURE=20.00
		NORM_TEMPERATURE=20.00
		CORRECTION_FACTOR=1.0000
		CORRECTIONS=AIR_DENSITY_CORR;
		BEGIN_DATA
			-126.00		7.5049E-03
			-123.00		8.1013E-03
			-120.00		8.5898E-03
			-117.00		9.4377E-03
			-114.00		9.9262E-03
			-111.00		10.872E-03
			-108.00		11.730E-03
			-105.00		12.161E-03
			-102.00		13.350E-03
			-99.00		14.412E-03
			-96.00		15.542E-03
			-93.00		17.861E-03
			-90.00		18.978E-03
			-87.00		20.771E-03
			-84.00		23.477E-03
			-81.00		25.444E-03
			-78.00		28.243E-03
			-75.00		31.769E-03
			-72.00		35.097E-03
			-69.00		41.060E-03
			-66.00		49.028E-03
			-63.00		59.603E-03
			-60.00		80.969E-03
			-57.00		140.42E-03
			-54.00		383.28E-03
			-51.00		585.66E-03
			-48.00		628.28E-03
			-45.00		641.11E-03
			-42.00		648.12E-03
			-39.00		655.89E-03
			-36.00		659.37E-03
			-33.00		658.80E-03
			-30.00		659.45E-03
			-27.00		661.91E-03
			-24.00		664.41E-03
			-21.00		664.40E-03
			-18.00		670.58E-03
			-15.00		669.63E-03
			-12.00		667.47E-03
			-9.00		669.56E-03
			-6.00		668.54E-03
			0.00		668.90E-03
			6.00		672.37E-03
			9.00		670.86E-03
			12.00		667.15E-03
			15.00		666.38E-03
			18.00		665.97E-03
			21.00		664.64E-03
			24.00		660.49E-03
			27.00		663.68E-03
			30.00		660.87E-03
			33.00		656.36E-03
			36.00		649.37E-03
			39.00		635.56E-03
			42.00		601.02E-03
			45.00		450.41E-03
			48.00		166.76E-03
			51.00		86.992E-03
			54.00		62.742E-03
			57.00		50.254E-03
			60.00		42.135E-03
			63.00		36.642E-03
			66.00		32.113E-03
			69.00		28.389E-03
			72.00		25.625E-03
			75.00		23.096E-03
			78.00		20.751E-03
			81.00		19.126E-03
			84.00		18.097E-03
			87.00		15.742E-03
			90.00		15.025E-03
			93.00		13.629E-03
			96.00		12.293E-03
			99.00		11.742E-03
			102.00		10.834E-03
			105.00		10.069E-03
			108.00		9.7386E-03
			111.00		8.4970E-03
			114.00		8.3204E-03
			117.00		7.7744E-03
			120.00		7.0008E-03
			123.00		6.7425E-03
			126.00		7.3446E-03
		END_DATA
	END_SCAN  4
	BEGIN_SCAN  5
		TASK_NAME=MODE_INTERVAL
		PROGRAM=BeamAdjust 1.2
		MEAS_DATE=07-Oct-2010 14:01:54
		LINAC=A4
		MODALITY=X
		INPLANE_AXIS_DIR=TARGET_GUN
		CROSSPLANE_AXIS_DIR=LEFT_RIGHT
		DEPTH_AXIS_DIR=UP_DOWN
		ENERGY=6.00
		SSD=950.00
		WEDGE=None
		FIELD_INPLANE=100.00
		FIELD_CROSSPLANE=100.00
		FIELD_TYPE=RECTANGULAR
		GANTRY=0.00
		GANTRY_UPRIGHT_POSITION=0
		GANTRY_ROTATION=CW
		COLL_ANGLE=90.00
		COLL_OFFSET_INPLANE=0.00
		COLL_OFFSET_CROSSPLANE=0.00
		SCAN_DEVICE=STARCHECK
		ELECTROMETER=2D_ARRAY_INTERFACE
		DETECTOR=STARCHECK
		SCAN_CURVETYPE=CROSSPLANE_PROFILE
		SCAN_DEPTH=0.00
		SCAN_OFFAXIS_INPLANE=50.00
		SCAN_ANGLE=0.00
		SCAN_DIAGONAL=NOT_DIAGONAL
		MEAS_PRESET=TIME_PRESET
		MEAS_TIME=10.000
		MEAS_UNIT=GY
		PRESSURE=1013.25
		TEMPERATURE=20.00
		NORM_TEMPERATURE=20.00
		CORRECTION_FACTOR=1.0000
		CORRECTIONS=AIR_DENSITY_CORR;
		BEGIN_DATA
			-30.00		269.35E-03
			-15.00		291.33E-03
			15.00		266.82E-03
			30.00		249.46E-03
		END_DATA
	END_SCAN  5
	BEGIN_SCAN  6
		TASK_NAME=MODE_INTERVAL
		PROGRAM=BeamAdjust 1.2
		MEAS_DATE=07-Oct-2010 14:01:54
		LINAC=A4
		MODALITY=X
		INPLANE_AXIS_DIR=TARGET_GUN
		CROSSPLANE_AXIS_DIR=LEFT_RIGHT
		DEPTH_AXIS_DIR=UP_DOWN
		ENERGY=6.00
		SSD=950.00
		WEDGE=None
		FIELD_INPLANE=100.00
		FIELD_CROSSPLANE=100.00
		FIELD_TYPE=RECTANGULAR
		GANTRY=0.00
		GANTRY_UPRIGHT_POSITION=0
		GANTRY_ROTATION=CW
		COLL_ANGLE=90.00
		COLL_OFFSET_INPLANE=0.00
		COLL_OFFSET_CROSSPLANE=0.00
		SCAN_DEVICE=STARCHECK
		ELECTROMETER=2D_ARRAY_INTERFACE
		DETECTOR=STARCHECK
		SCAN_CURVETYPE=CROSSPLANE_PROFILE
		SCAN_DEPTH=0.00
		SCAN_OFFAXIS_INPLANE=100.00
		SCAN_ANGLE=0.00
		SCAN_DIAGONAL=NOT_DIAGONAL
		MEAS_PRESET=TIME_PRESET
		MEAS_TIME=10.000
		MEAS_UNIT=GY
		PRESSURE=1013.25
		TEMPERATURE=20.00
		NORM_TEMPERATURE=20.00
		CORRECTION_FACTOR=1.0000
		CORRECTIONS=AIR_DENSITY_CORR;
		BEGIN_DATA
			-60.00		11.662E-03
			-30.00		14.937E-03
			30.00		14.183E-03
			60.00		8.4497E-03
		END_DATA
	END_SCAN  6
	BEGIN_SCAN  7
		TASK_NAME=MODE_INTERVAL
		PROGRAM=BeamAdjust 1.2
		MEAS_DATE=07-Oct-2010 14:01:54
		LINAC=A4
		MODALITY=X
		INPLANE_AXIS_DIR=TARGET_GUN
		CROSSPLANE_AXIS_DIR=LEFT_RIGHT
		DEPTH_AXIS_DIR=UP_DOWN
		ENERGY=6.00
		SSD=950.00
		WEDGE=None
		FIELD_INPLANE=100.00
		FIELD_CROSSPLANE=100.00
		FIELD_TYPE=RECTANGULAR
		GANTRY=0.00
		GANTRY_UPRIGHT_POSITION=0
		GANTRY_ROTATION=CW
		COLL_ANGLE=90.00
		COLL_OFFSET_INPLANE=0.00
		COLL_OFFSET_CROSSPLANE=0.00
		SCAN_DEVICE=STARCHECK
		ELECTROMETER=2D_ARRAY_INTERFACE
		DETECTOR=STARCHECK
		SCAN_CURVETYPE=CROSSPLANE_PROFILE
		SCAN_DEPTH=0.00
		SCAN_OFFAXIS_INPLANE=130.00
		SCAN_ANGLE=0.00
		SCAN_DIAGONAL=NOT_DIAGONAL
		MEAS_PRESET=TIME_PRESET
		MEAS_TIME=10.000
		MEAS_UNIT=GY
		PRESSURE=1013.25
		TEMPERATURE=20.00
		NORM_TEMPERATURE=20.00
		CORRECTION_FACTOR=1.0000
		CORRECTIONS=AIR_DENSITY_CORR;
		BEGIN_DATA
			-130.00		2.3293E-03
			-80.00		4.5940E-03
			-40.00		7.3346E-03
			40.00		6.5385E-03
			80.00		4.0477E-03
			130.00		2.2501E-03
		END_DATA
	END_SCAN  7
	BEGIN_SCAN  8
		TASK_NAME=MODE_INTERVAL
		PROGRAM=BeamAdjust 1.2
		MEAS_DATE=07-Oct-2010 14:01:54
		LINAC=A4
		MODALITY=X
		INPLANE_AXIS_DIR=TARGET_GUN
		CROSSPLANE_AXIS_DIR=LEFT_RIGHT
		DEPTH_AXIS_DIR=UP_DOWN
		ENERGY=6.00
		SSD=950.00
		WEDGE=None
		FIELD_INPLANE=100.00
		FIELD_CROSSPLANE=100.00
		FIELD_TYPE=RECTANGULAR
		GANTRY=0.00
		GANTRY_UPRIGHT_POSITION=0
		GANTRY_ROTATION=CW
		COLL_ANGLE=90.00
		COLL_OFFSET_INPLANE=0.00
		COLL_OFFSET_CROSSPLANE=0.00
		SCAN_DEVICE=STARCHECK
		ELECTROMETER=2D_ARRAY_INTERFACE
		DETECTOR=STARCHECK
		SCAN_CURVETYPE=INPLANE_PROFILE
		SCAN_DEPTH=0.00
		SCAN_OFFAXIS_CROSSPLANE=-130.00
		SCAN_ANGLE=0.00
		SCAN_DIAGONAL=NOT_DIAGONAL
		MEAS_PRESET=TIME_PRESET
		MEAS_TIME=10.000
		MEAS_UNIT=GY
		PRESSURE=1013.25
		TEMPERATURE=20.00
		NORM_TEMPERATURE=20.00
		CORRECTION_FACTOR=1.0000
		CORRECTIONS=AIR_DENSITY_CORR;
		BEGIN_DATA
			-130.00		2.6218E-03
			-125.00		2.9710E-03
			-120.00		3.3350E-03
			-115.00		3.5328E-03
			-110.00		3.5908E-03
			-105.00		3.8599E-03
			-100.00		4.5968E-03
			-95.00		5.0319E-03
			-90.00		4.9871E-03
			-85.00		4.7711E-03
			-80.00		4.6391E-03
			-75.00		5.1457E-03
			-70.00		5.1521E-03
			-65.00		5.4207E-03
			-60.00		5.6314E-03
			-55.00		6.5563E-03
			-50.00		4.7488E-03
			-45.00		5.0990E-03
			-40.00		5.2963E-03
			-35.00		5.9040E-03
			-30.00		6.1799E-03
			-25.00		5.8653E-03
			-20.00		5.8039E-03
			-15.00		5.3398E-03
			-10.00		5.6535E-03
			-5.00		6.5500E-03
			0.00		6.5440E-03
			5.00		6.9683E-03
			10.00		6.4226E-03
			15.00		6.1057E-03
			20.00		6.5850E-03
			25.00		5.5242E-03
			30.00		5.8723E-03
			35.00		5.7460E-03
			40.00		6.0374E-03
			45.00		5.3983E-03
			50.00		5.5070E-03
			55.00		4.9966E-03
			60.00		4.9754E-03
			65.00		4.3347E-03
			70.00		4.1410E-03
			75.00		4.4549E-03
			80.00		4.2936E-03
			85.00		4.0717E-03
			90.00		3.7342E-03
			95.00		3.7202E-03
			100.00		3.2207E-03
			105.00		2.7506E-03
			110.00		3.5282E-03
			115.00		2.6188E-03
			120.00		2.9869E-03
			125.00		2.8576E-03
			130.00		2.3293E-03
		END_DATA
	END_SCAN  8
	BEGIN_SCAN  9
		TASK_NAME=MODE_INTERVAL
		PROGRAM=BeamAdjust 1.2
		MEAS_DATE=07-Oct-2010 14:01:54
		LINAC=A4
		MODALITY=X
		INPLANE_AXIS_DIR=TARGET_GUN
		CROSSPLANE_AXIS_DIR=LEFT_RIGHT
		DEPTH_AXIS_DIR=UP_DOWN
		ENERGY=6.00
		SSD=950.00
		WEDGE=None
		FIELD_INPLANE=100.00
		FIELD_CROSSPLANE=100.00
		FIELD_TYPE=RECTANGULAR
		GANTRY=0.00
		GANTRY_UPRIGHT_POSITION=0
		GANTRY_ROTATION=CW
		COLL_ANGLE=90.00
		COLL_OFFSET_INPLANE=0.00
		COLL_OFFSET_CROSSPLANE=0.00
		SCAN_DEVICE=STARCHECK
		ELECTROMETER=2D_ARRAY_INTERFACE
		DETECTOR=STARCHECK
		SCAN_CURVETYPE=INPLANE_PROFILE
		SCAN_DEPTH=0.00
		SCAN_OFFAXIS_CROSSPLANE=-100.00
		SCAN_ANGLE=0.00
		SCAN_DIAGONAL=NOT_DIAGONAL
		MEAS_PRESET=TIME_PRESET
		MEAS_TIME=10.000
		MEAS_UNIT=GY
		PRESSURE=1013.25
		TEMPERATURE=20.00
		NORM_TEMPERATURE=20.00
		CORRECTION_FACTOR=1.0000
		CORRECTIONS=AIR_DENSITY_CORR;
		BEGIN_DATA
			-60.00		9.3767E-03
			-30.00		11.799E-03
			30.00		11.362E-03
			60.00		8.8351E-03
		END_DATA
	END_SCAN  9
	BEGIN_SCAN  10
		TASK_NAME=MODE_INTERVAL
		PROGRAM=BeamAdjust 1.2
		MEAS_DATE=07-Oct-2010 14:01:54
		LINAC=A4
		MODALITY=X
		INPLANE_AXIS_DIR=TARGET_GUN
		CROSSPLANE_AXIS_DIR=LEFT_RIGHT
		DEPTH_AXIS_DIR=UP_DOWN
		ENERGY=6.00
		SSD=950.00
		WEDGE=None
		FIELD_INPLANE=100.00
		FIELD_CROSSPLANE=100.00
		FIELD_TYPE=RECTANGULAR
		GANTRY=0.00
		GANTRY_UPRIGHT_POSITION=0
		GANTRY_ROTATION=CW
		COLL_ANGLE=90.00
		COLL_OFFSET_INPLANE=0.00
		COLL_OFFSET_CROSSPLANE=0.00
		SCAN_DEVICE=STARCHECK
		ELECTROMETER=2D_ARRAY_INTERFACE
		DETECTOR=STARCHECK
		SCAN_CURVETYPE=INPLANE_PROFILE
		SCAN_DEPTH=0.00
		SCAN_OFFAXIS_CROSSPLANE=-50.00
		SCAN_ANGLE=0.00
		SCAN_DIAGONAL=NOT_DIAGONAL
		MEAS_PRESET=TIME_PRESET
		MEAS_TIME=10.000
		MEAS_UNIT=GY
		PRESSURE=1013.25
		TEMPERATURE=20.00
		NORM_TEMPERATURE=20.00
		CORRECTION_FACTOR=1.0000
		CORRECTIONS=AIR_DENSITY_CORR;
		BEGIN_DATA
			-30.00		617.95E-03
			-15.00		618.38E-03
			15.00		616.78E-03
			30.00		610.13E-03
		END_DATA
	END_SCAN  10
	BEGIN_SCAN  11
		TASK_NAME=MODE_INTERVAL
		PROGRAM=BeamAdjust 1.2
		MEAS_DATE=07-Oct-2010 14:01:54
		LINAC=A4
		MODALITY=X
		INPLANE_AXIS_DIR=TARGET_GUN
		CROSSPLANE_AXIS_DIR=LEFT_RIGHT
		DEPTH_AXIS_DIR=UP_DOWN
		ENERGY=6.00
		SSD=950.00
		WEDGE=None
		FIELD_INPLANE=100.00
		FIELD_CROSSPLANE=100.00
		FIELD_TYPE=RECTANGULAR
		GANTRY=0.00
		GANTRY_UPRIGHT_POSITION=0
		GANTRY_ROTATION=CW
		COLL_ANGLE=90.00
		COLL_OFFSET_INPLANE=0.00
		COLL_OFFSET_CROSSPLANE=0.00
		SCAN_DEVICE=STARCHECK
		ELECTROMETER=2D_ARRAY_INTERFACE
		DETECTOR=STARCHECK
		SCAN_CURVETYPE=INPLANE_PROFILE
		SCAN_DEPTH=0.00
		SCAN_OFFAXIS_CROSSPLANE=0.00
		SCAN_ANGLE=0.00
		SCAN_DIAGONAL=NOT_DIAGONAL
		MEAS_PRESET=TIME_PRESET
		MEAS_TIME=10.000
		MEAS_UNIT=GY
		PRESSURE=1013.25
		TEMPERATURE=20.00
		NORM_TEMPERATURE=20.00
		CORRECTION_FACTOR=1.0000
		CORRECTIONS=AIR_DENSITY_CORR;
		BEGIN_DATA
			-126.00		9.0608E-03
			-123.00		9.1127E-03
			-120.00		10.361E-03
			-117.00		11.119E-03
			-114.00		11.794E-03
			-111.00		12.622E-03
			-108.00		13.331E-03
			-105.00		14.762E-03
			-102.00		16.178E-03
			-99.00		16.831E-03
			-96.00		18.477E-03
			-93.00		20.527E-03
			-90.00		22.436E-03
			-87.00		23.865E-03
			-84.00		25.985E-03
			-81.00		28.339E-03
			-78.00		30.868E-03
			-75.00		33.335E-03
			-72.00		36.770E-03
			-69.00		40.460E-03
			-66.00		45.775E-03
			-63.00		52.599E-03
			-60.00		62.687E-03
			-57.00		81.933E-03
			-54.00		130.43E-03
			-51.00		293.43E-03
			-48.00		551.01E-03
			-45.00		622.78E-03
			-42.00		643.15E-03
			-39.00		652.71E-03
			-36.00		658.32E-03
			-33.00		661.55E-03
			-30.00		665.40E-03
			-27.00		666.49E-03
			-24.00		666.16E-03
			-21.00		665.11E-03
			-18.00		671.66E-03
			-15.00		670.09E-03
			-12.00		671.75E-03
			-9.00		671.73E-03
			-6.00		669.71E-03
			0.00		668.90E-03
			6.00		673.12E-03
			9.00		672.32E-03
			12.00		671.36E-03
			15.00		669.35E-03
			18.00		665.10E-03
			21.00		664.79E-03
			24.00		661.62E-03
			27.00		663.08E-03
			30.00		658.48E-03
			33.00		656.78E-03
			36.00		654.29E-03
			39.00		643.50E-03
			42.00		632.02E-03
			45.00		599.17E-03
			48.00		441.58E-03
			51.00		192.98E-03
			54.00		99.774E-03
			57.00		70.610E-03
			60.00		57.022E-03
			63.00		48.783E-03
			66.00		43.385E-03
			69.00		38.663E-03
			72.00		35.030E-03
			75.00		31.579E-03
			78.00		28.236E-03
			81.00		26.387E-03
			84.00		24.796E-03
			87.00		22.552E-03
			90.00		21.230E-03
			93.00		19.540E-03
			96.00		18.178E-03
			99.00		16.685E-03
			102.00		14.864E-03
			105.00		14.040E-03
			108.00		13.535E-03
			111.00		12.241E-03
			114.00		11.824E-03
			117.00		11.090E-03
			120.00		10.430E-03
			123.00		9.8205E-03
			126.00		9.3951E-03
		END_DATA
	END_SCAN  11
	BEGIN_SCAN  12
		TASK_NAME=MODE_INTERVAL
		PROGRAM=BeamAdjust 1.2
		MEAS_DATE=07-Oct-2010 14:01:54
		LINAC=A4
		MODALITY=X
		INPLANE_AXIS_DIR=TARGET_GUN
		CROSSPLANE_AXIS_DIR=LEFT_RIGHT
		DEPTH_AXIS_DIR=UP_DOWN
		ENERGY=6.00
		SSD=950.00
		WEDGE=None
		FIELD_INPLANE=100.00
		FIELD_CROSSPLANE=100.00
		FIELD_TYPE=RECTANGULAR
		GANTRY=0.00
		GANTRY_UPRIGHT_POSITION=0
		GANTRY_ROTATION=CW
		COLL_ANGLE=90.00
		COLL_OFFSET_INPLANE=0.00
		COLL_OFFSET_CROSSPLANE=0.00
		SCAN_DEVICE=STARCHECK
		ELECTROMETER=2D_ARRAY_INTERFACE
		DETECTOR=STARCHECK
		SCAN_CURVETYPE=INPLANE_PROFILE
		SCAN_DEPTH=0.00
		SCAN_OFFAXIS_CROSSPLANE=50.00
		SCAN_ANGLE=0.00
		SCAN_DIAGONAL=NOT_DIAGONAL
		MEAS_PRESET=TIME_PRESET
		MEAS_TIME=10.000
		MEAS_UNIT=GY
		PRESSURE=1013.25
		TEMPERATURE=20.00
		NORM_TEMPERATURE=20.00
		CORRECTION_FACTOR=1.0000
		CORRECTIONS=AIR_DENSITY_CORR;
		BEGIN_DATA
			-30.00		87.357E-03
			-15.00		93.311E-03
			15.00		95.251E-03
			30.00		92.761E-03
		END_DATA
	END_SCAN  12
	BEGIN_SCAN  13
		TASK_NAME=MODE_INTERVAL
		PROGRAM=BeamAdjust 1.2
		MEAS_DATE=07-Oct-2010 14:01:54
		LINAC=A4
		MODALITY=X
		INPLANE_AXIS_DIR=TARGET_GUN
		CROSSPLANE_AXIS_DIR=LEFT_RIGHT
		DEPTH_AXIS_DIR=UP_DOWN
		ENERGY=6.00
		SSD=950.00
		WEDGE=None
		FIELD_INPLANE=100.00
		FIELD_CROSSPLANE=100.00
		FIELD_TYPE=RECTANGULAR
		GANTRY=0.00
		GANTRY_UPRIGHT_POSITION=0
		GANTRY_ROTATION=CW
		COLL_ANGLE=90.00
		COLL_OFFSET_INPLANE=0.00
		COLL_OFFSET_CROSSPLANE=0.00
		SCAN_DEVICE=STARCHECK
		ELECTROMETER=2D_ARRAY_INTERFACE
		DETECTOR=STARCHECK
		SCAN_CURVETYPE=INPLANE_PROFILE
		SCAN_DEPTH=0.00
		SCAN_OFFAXIS_CROSSPLANE=100.00
		SCAN_ANGLE=0.00
		SCAN_DIAGONAL=NOT_DIAGONAL
		MEAS_PRESET=TIME_PRESET
		MEAS_TIME=10.000
		MEAS_UNIT=GY
		PRESSURE=1013.25
		TEMPERATURE=20.00
		NORM_TEMPERATURE=20.00
		CORRECTION_FACTOR=1.0000
		CORRECTIONS=AIR_DENSITY_CORR;
		BEGIN_DATA
			-60.00		7.5516E-03
			-30.00		9.7780E-03
			30.00		9.6996E-03
			60.00		6.8760E-03
		END_DATA
	END_SCAN  13
	BEGIN_SCAN  14
		TASK_NAME=MODE_INTERVAL
		PROGRAM=BeamAdjust 1.2
		MEAS_DATE=07-Oct-2010 14:01:54
		LINAC=A4
		MODALITY=X
		INPLANE_AXIS_DIR=TARGET_GUN
		CROSSPLANE_AXIS_DIR=LEFT_RIGHT
		DEPTH_AXIS_DIR=UP_DOWN
		ENERGY=6.00
		SSD=950.00
		WEDGE=None
		FIELD_INPLANE=100.00
		FIELD_CROSSPLANE=100.00
		FIELD_TYPE=RECTANGULAR
		GANTRY=0.00
		GANTRY_UPRIGHT_POSITION=0
		GANTRY_ROTATION=CW
		COLL_ANGLE=90.00
		COLL_OFFSET_INPLANE=0.00
		COLL_OFFSET_CROSSPLANE=0.00
		SCAN_DEVICE=STARCHECK
		ELECTROMETER=2D_ARRAY_INTERFACE
		DETECTOR=STARCHECK
		SCAN_CURVETYPE=INPLANE_PROFILE
		SCAN_DEPTH=0.00
		SCAN_OFFAXIS_CROSSPLANE=130.00
		SCAN_ANGLE=0.00
		SCAN_DIAGONAL=NOT_DIAGONAL
		MEAS_PRESET=TIME_PRESET
		MEAS_TIME=10.000
		MEAS_UNIT=GY
		PRESSURE=1013.25
		TEMPERATURE=20.00
		NORM_TEMPERATURE=20.00
		CORRECTION_FACTOR=1.0000
		CORRECTIONS=AIR_DENSITY_CORR;
		BEGIN_DATA
			-130.00		1.6921E-03
			-125.00		2.6546E-03
			-120.00		2.1522E-03
			-115.00		2.4247E-03
			-110.00		2.2560E-03
			-105.00		2.3559E-03
			-100.00		2.8693E-03
			-95.00		2.7626E-03
			-90.00		2.1919E-03
			-85.00		3.8535E-03
			-80.00		3.3023E-03
			-75.00		3.4312E-03
			-70.00		3.6110E-03
			-65.00		3.7030E-03
			-60.00		4.4959E-03
			-55.00		4.3797E-03
			-50.00		3.9858E-03
			-45.00		4.1984E-03
			-40.00		4.8108E-03
			-35.00		4.9208E-03
			-30.00		4.9563E-03
			-25.00		4.7531E-03
			-20.00		5.1034E-03
			-15.00		5.6322E-03
			-10.00		4.6724E-03
			-5.00		5.3583E-03
			0.00		5.9229E-03
			5.00		5.5421E-03
			10.00		5.4863E-03
			15.00		5.0039E-03
			20.00		5.0301E-03
			25.00		5.1618E-03
			30.00		4.4401E-03
			35.00		4.8304E-03
			40.00		5.1149E-03
			45.00		4.9324E-03
			50.00		4.6953E-03
			55.00		5.2514E-03
			60.00		4.3892E-03
			65.00		3.8199E-03
			70.00		3.9654E-03
			75.00		4.0873E-03
			80.00		3.9361E-03
			85.00		3.6715E-03
			90.00		3.4916E-03
			95.00		3.3652E-03
			100.00		3.3165E-03
			105.00		2.6262E-03
			110.00		2.5703E-03
			115.00		2.6239E-03
			120.00		2.7079E-03
			125.00		2.5736E-03
			130.00		2.2501E-03
		END_DATA
	END_SCAN  14
	BEGIN_SCAN  15
		TASK_NAME=MODE_INTERVAL
		PROGRAM=BeamAdjust 1.2
		MEAS_DATE=07-Oct-2010 14:01:54
		LINAC=A4
		MODALITY=X
		INPLANE_AXIS_DIR=TARGET_GUN
		CROSSPLANE_AXIS_DIR=LEFT_RIGHT
		DEPTH_AXIS_DIR=UP_DOWN
		ENERGY=6.00
		SSD=950.00
		WEDGE=None
		FIELD_INPLANE=100.00
		FIELD_CROSSPLANE=100.00
		FIELD_TYPE=RECTANGULAR
		GANTRY=0.00
		GANTRY_UPRIGHT_POSITION=0
		GANTRY_ROTATION=CW
		COLL_ANGLE=90.00
		COLL_OFFSET_INPLANE=0.00
		COLL_OFFSET_CROSSPLANE=0.00
		SCAN_DEVICE=STARCHECK
		ELECTROMETER=2D_ARRAY_INTERFACE
		DETECTOR=STARCHECK
		SCAN_CURVETYPE=INPLANE_PROFILE
		SCAN_DEPTH=0.00
		SCAN_OFFAXIS_CROSSPLANE=0.00
		SCAN_ANGLE=0.00
		SCAN_DIAGONAL=FIRST_DIAGONAL
		MEAS_PRESET=TIME_PRESET
		MEAS_TIME=10.000
		MEAS_UNIT=GY
		PRESSURE=1013.25
		TEMPERATURE=20.00
		NORM_TEMPERATURE=20.00
		CORRECTION_FACTOR=1.0000
		CORRECTIONS=AIR_DENSITY_CORR;
		BEGIN_DATA
			-172.40		2.5608E-03
			-169.40		2.9263E-03
			-166.40		3.9114E-03
			-163.40		3.9167E-03
			-160.40		4.3205E-03
			-157.40		4.4223E-03
			-154.40		4.2600E-03
			-151.40		4.1397E-03
			-148.40		5.0226E-03
			-145.40		5.3922E-03
			-142.40		5.8214E-03
			-139.40		6.5682E-03
			-136.40		6.9954E-03
			-133.40		7.7366E-03
			-130.40		7.7756E-03
			-127.40		8.0781E-03
			-124.40		8.8506E-03
			-121.40		9.7993E-03
			-118.40		10.838E-03
			-115.40		11.995E-03
			-112.40		12.493E-03
			-109.40		13.532E-03
			-106.40		15.006E-03
			-103.40		15.603E-03
			-100.40		17.325E-03
			-97.40		20.029E-03
			-94.40		22.481E-03
			-91.40		25.013E-03
			-88.40		28.607E-03
			-85.40		32.309E-03
			-82.40		38.560E-03
			-79.40		50.278E-03
			-76.40		81.067E-03
			-73.40		188.65E-03
			-70.40		366.87E-03
			-67.40		512.66E-03
			-64.40		589.67E-03
			-61.40		619.48E-03
			-58.40		633.29E-03
			-55.40		642.75E-03
			-52.40		648.71E-03
			-49.40		652.47E-03
			-46.40		654.52E-03
			-43.40		656.64E-03
			-40.40		659.11E-03
			-37.40		663.47E-03
			-34.40		662.78E-03
			-31.40		664.31E-03
			-28.40		662.77E-03
			-25.40		665.62E-03
			-22.40		666.57E-03
			-19.40		667.62E-03
			-16.40		670.59E-03
			-13.40		671.80E-03
			0.00		668.90E-03
			13.40		671.57E-03
			16.40		667.18E-03
			19.40		667.46E-03
			22.40		666.26E-03
			25.40		664.66E-03
			28.40		663.70E-03
			31.40		660.73E-03
			34.40		657.03E-03
			37.40		659.42E-03
			40.40		656.48E-03
			43.40		652.91E-03
			46.40		649.74E-03
			49.40		641.85E-03
			52.40		633.49E-03
			55.40		614.94E-03
			58.40		580.49E-03
			61.40		489.04E-03
			64.40		308.42E-03
			67.40		132.53E-03
			70.40		63.470E-03
			73.40		43.974E-03
			76.40		35.091E-03
			79.40		30.179E-03
			82.40		26.231E-03
			85.40		23.294E-03
			88.40		21.312E-03
			91.40		19.102E-03
			94.40		17.255E-03
			97.40		15.904E-03
			100.40		14.152E-03
			103.40		13.526E-03
			106.40		12.208E-03
			109.40		11.111E-03
			112.40		9.5671E-03
			115.40		9.3775E-03
			118.40		8.6135E-03
			121.40		7.8765E-03
			124.40		7.2027E-03
			127.40		7.1046E-03
			130.40		6.9001E-03
			133.40		5.9026E-03
			136.40		4.9012E-03
			139.40		5.2405E-03
			142.40		4.6143E-03
			145.40		4.6019E-03
			148.40		4.5867E-03
			151.40		3.9646E-03
			154.40		4.2060E-03
			157.40		3.5816E-03
			160.40		2.7218E-03
			163.40		2.6289E-03
			166.40		3.0640E-03
			169.40		2.7516E-03
			172.40		2.8175E-03
		END_DATA
	END_SCAN  15
	BEGIN_SCAN  16
		TASK_NAME=MODE_INTERVAL
		PROGRAM=BeamAdjust 1.2
		MEAS_DATE=07-Oct-2010 14:01:54
		LINAC=A4
		MODALITY=X
		INPLANE_AXIS_DIR=GUN_TARGET
		CROSSPLANE_AXIS_DIR=LEFT_RIGHT
		DEPTH_AXIS_DIR=UP_DOWN
		ENERGY=6.00
		SSD=950.00
		WEDGE=None
		FIELD_INPLANE=100.00
		FIELD_CROSSPLANE=100.00
		FIELD_TYPE=RECTANGULAR
		GANTRY=0.00
		GANTRY_UPRIGHT_POSITION=0
		GANTRY_ROTATION=CW
		COLL_ANGLE=90.00
		COLL_OFFSET_INPLANE=0.00
		COLL_OFFSET_CROSSPLANE=0.00
		SCAN_DEVICE=STARCHECK
		ELECTROMETER=2D_ARRAY_INTERFACE
		DETECTOR=STARCHECK
		SCAN_CURVETYPE=INPLANE_PROFILE
		SCAN_DEPTH=0.00
		SCAN_OFFAXIS_CROSSPLANE=0.00
		SCAN_ANGLE=0.00
		SCAN_DIAGONAL=SECOND_DIAGONAL
		MEAS_PRESET=TIME_PRESET
		MEAS_TIME=10.000
		MEAS_UNIT=GY
		PRESSURE=1013.25
		TEMPERATURE=20.00
		NORM_TEMPERATURE=20.00
		CORRECTION_FACTOR=1.0000
		CORRECTIONS=AIR_DENSITY_CORR;
		BEGIN_DATA
			-172.40		3.3558E-03
			-169.40		2.9794E-03
			-166.40		2.9949E-03
			-163.40		3.0135E-03
			-160.40		3.1734E-03
			-157.40		3.3806E-03
			-154.40		4.0641E-03
			-151.40		4.3168E-03
			-148.40		4.3299E-03
			-145.40		4.2358E-03
			-142.40		4.9295E-03
			-139.40		5.2383E-03
			-136.40		5.3730E-03
			-133.40		6.1763E-03
			-130.40		7.0362E-03
			-127.40		7.3063E-03
			-124.40		7.8473E-03
			-121.40		8.1255E-03
			-118.40		8.8209E-03
			-115.40		9.1547E-03
			-112.40		9.8437E-03
			-109.40		11.184E-03
			-106.40		12.084E-03
			-103.40		13.325E-03
			-100.40		14.822E-03
			-97.40		15.878E-03
			-94.40		17.296E-03
			-91.40		19.532E-03
			-88.40		21.331E-03
			-85.40		23.289E-03
			-82.40		26.502E-03
			-79.40		30.786E-03
			-76.40		36.159E-03
			-73.40		46.396E-03
			-70.40		69.815E-03
			-67.40		154.82E-03
			-64.40		330.34E-03
			-61.40		491.17E-03
			-58.40		587.20E-03
			-55.40		621.03E-03
			-52.40		639.92E-03
			-49.40		648.25E-03
			-46.40		654.03E-03
			-43.40		657.39E-03
			-40.40		659.74E-03
			-37.40		664.09E-03
			-34.40		664.02E-03
			-31.40		665.35E-03
			-28.40		668.13E-03
			-25.40		666.72E-03
			-22.40		665.36E-03
			-19.40		668.31E-03
			-16.40		669.09E-03
			-13.40		672.45E-03
			0.00		668.90E-03
			13.40		673.52E-03
			16.40		670.63E-03
			19.40		667.37E-03
			22.40		663.80E-03
			25.40		663.34E-03
			28.40		662.59E-03
			31.40		661.24E-03
			34.40		658.69E-03
			37.40		658.55E-03
			40.40		657.01E-03
			43.40		654.93E-03
			46.40		653.57E-03
			49.40		649.93E-03
			52.40		642.33E-03
			55.40		634.98E-03
			58.40		626.38E-03
			61.40		603.29E-03
			64.40		545.00E-03
			67.40		424.79E-03
			70.40		262.91E-03
			73.40		121.72E-03
			76.40		62.587E-03
			79.40		43.915E-03
			82.40		35.971E-03
			85.40		30.940E-03
			88.40		27.120E-03
			91.40		24.250E-03
			94.40		21.472E-03
			97.40		20.082E-03
			100.40		17.316E-03
			103.40		15.776E-03
			106.40		14.495E-03
			109.40		13.005E-03
			112.40		12.029E-03
			115.40		11.191E-03
			118.40		10.071E-03
			121.40		9.5808E-03
			124.40		8.9201E-03
			127.40		7.7828E-03
			130.40		8.0355E-03
			133.40		7.0715E-03
			136.40		6.4601E-03
			139.40		6.6388E-03
			142.40		6.2391E-03
			145.40		5.7840E-03
			148.40		5.2846E-03
			151.40		4.5902E-03
			154.40		4.1220E-03
			157.40		4.2244E-03
			160.40		3.9364E-03
			163.40		4.3886E-03
			166.40		3.8318E-03
			169.40		3.1567E-03
			172.40		2.7388E-03
		END_DATA
	END_SCAN  16
END_SCAN_DATA
