BEGIN_SCAN_DATA
	FORMAT=CC-Export V1.9                  
	FILE_CREATION_DATE=07-Oct-2010 14:02:26
	LAST_MODIFIED=07-Oct-2010 14:02:26
	BEGIN_SCAN  1
		TASK_NAME=MODE_INTERVAL
		PROGRAM=BeamAdjust 1.2
		MEAS_DATE=07-Oct-2010 14:02:26
		LINAC=A4
		MODALITY=X
		INPLANE_AXIS_DIR=TARGET_GUN
		CROSSPLANE_AXIS_DIR=LEFT_RIGHT
		DEPTH_AXIS_DIR=UP_DOWN
		ENERGY=6.00
		SSD=950.00
		WEDGE=None
		FIELD_INPLANE=100.00
		FIELD_CROSSPLANE=100.00
		FIELD_TYPE=RECTANGULAR
		GANTRY=0.00
		GANTRY_UPRIGHT_POSITION=0
		GANTRY_ROTATION=CW
		COLL_ANGLE=90.00
		COLL_OFFSET_INPLANE=0.00
		COLL_OFFSET_CROSSPLANE=0.00
		SCAN_DEVICE=STARCHECK
		ELECTROMETER=2D_ARRAY_INTERFACE
		DETECTOR=STARCHECK
		SCAN_CURVETYPE=CROSSPLANE_PROFILE
		SCAN_DEPTH=0.00
		SCAN_OFFAXIS_INPLANE=-130.00
		SCAN_ANGLE=0.00
		SCAN_DIAGONAL=NOT_DIAGONAL
		MEAS_PRESET=TIME_PRESET
		MEAS_TIME=10.000
		MEAS_UNIT=GY
		PRESSURE=1013.25
		TEMPERATURE=20.00
		NORM_TEMPERATURE=20.00
		CORRECTION_FACTOR=1.0000
		CORRECTIONS=AIR_DENSITY_CORR;
		BEGIN_DATA
			-130.00		2.8966E-03
			-80.00		4.5810E-03
			-40.00		7.3358E-03
			40.00		6.6009E-03
			80.00		3.7578E-03
			130.00		1.9269E-03
		END_DATA
	END_SCAN  1
	BEGIN_SCAN  2
		TASK_NAME=MODE_INTERVAL
		PROGRAM=BeamAdjust 1.2
		MEAS_DATE=07-Oct-2010 14:02:26
		LINAC=A4
		MODALITY=X
		INPLANE_AXIS_DIR=TARGET_GUN
		CROSSPLANE_AXIS_DIR=LEFT_RIGHT
		DEPTH_AXIS_DIR=UP_DOWN
		ENERGY=6.00
		SSD=950.00
		WEDGE=None
		FIELD_INPLANE=100.00
		FIELD_CROSSPLANE=100.00
		FIELD_TYPE=RECTANGULAR
		GANTRY=0.00
		GANTRY_UPRIGHT_POSITION=0
		GANTRY_ROTATION=CW
		COLL_ANGLE=90.00
		COLL_OFFSET_INPLANE=0.00
		COLL_OFFSET_CROSSPLANE=0.00
		SCAN_DEVICE=STARCHECK
		ELECTROMETER=2D_ARRAY_INTERFACE
		DETECTOR=STARCHECK
		SCAN_CURVETYPE=CROSSPLANE_PROFILE
		SCAN_DEPTH=0.00
		SCAN_OFFAXIS_INPLANE=-100.00
		SCAN_ANGLE=0.00
		SCAN_DIAGONAL=NOT_DIAGONAL
		MEAS_PRESET=TIME_PRESET
		MEAS_TIME=10.000
		MEAS_UNIT=GY
		PRESSURE=1013.25
		TEMPERATURE=20.00
		NORM_TEMPERATURE=20.00
		CORRECTION_FACTOR=1.0000
		CORRECTIONS=AIR_DENSITY_CORR;
		BEGIN_DATA
			-60.00		11.113E-03
			-30.00		14.553E-03
			30.00		14.653E-03
			60.00		9.4763E-03
		END_DATA
	END_SCAN  2
	BEGIN_SCAN  3
		TASK_NAME=MODE_INTERVAL
		PROGRAM=BeamAdjust 1.2
		MEAS_DATE=07-Oct-2010 14:02:26
		LINAC=A4
		MODALITY=X
		INPLANE_AXIS_DIR=TARGET_GUN
		CROSSPLANE_AXIS_DIR=LEFT_RIGHT
		DEPTH_AXIS_DIR=UP_DOWN
		ENERGY=6.00
		SSD=950.00
		WEDGE=None
		FIELD_INPLANE=100.00
		FIELD_CROSSPLANE=100.00
		FIELD_TYPE=RECTANGULAR
		GANTRY=0.00
		GANTRY_UPRIGHT_POSITION=0
		GANTRY_ROTATION=CW
		COLL_ANGLE=90.00
		COLL_OFFSET_INPLANE=0.00
		COLL_OFFSET_CROSSPLANE=0.00
		SCAN_DEVICE=STARCHECK
		ELECTROMETER=2D_ARRAY_INTERFACE
		DETECTOR=STARCHECK
		SCAN_CURVETYPE=CROSSPLANE_PROFILE
		SCAN_DEPTH=0.00
		SCAN_OFFAXIS_INPLANE=-50.00
		SCAN_ANGLE=0.00
		SCAN_DIAGONAL=NOT_DIAGONAL
		MEAS_PRESET=TIME_PRESET
		MEAS_TIME=10.000
		MEAS_UNIT=GY
		PRESSURE=1013.25
		TEMPERATURE=20.00
		NORM_TEMPERATURE=20.00
		CORRECTION_FACTOR=1.0000
		CORRECTIONS=AIR_DENSITY_CORR;
		BEGIN_DATA
			-30.00		383.22E-03
			-15.00		374.91E-03
			15.00		387.37E-03
			30.00		373.93E-03
		END_DATA
	END_SCAN  3
	BEGIN_SCAN  4
		TASK_NAME=MODE_INTERVAL
		PROGRAM=BeamAdjust 1.2
		MEAS_DATE=07-Oct-2010 14:02:26
		LINAC=A4
		MODALITY=X
		INPLANE_AXIS_DIR=TARGET_GUN
		CROSSPLANE_AXIS_DIR=LEFT_RIGHT
		DEPTH_AXIS_DIR=UP_DOWN
		ENERGY=6.00
		SSD=950.00
		WEDGE=None
		FIELD_INPLANE=100.00
		FIELD_CROSSPLANE=100.00
		FIELD_TYPE=RECTANGULAR
		GANTRY=0.00
		GANTRY_UPRIGHT_POSITION=0
		GANTRY_ROTATION=CW
		COLL_ANGLE=90.00
		COLL_OFFSET_INPLANE=0.00
		COLL_OFFSET_CROSSPLANE=0.00
		SCAN_DEVICE=STARCHECK
		ELECTROMETER=2D_ARRAY_INTERFACE
		DETECTOR=STARCHECK
		SCAN_CURVETYPE=CROSSPLANE_PROFILE
		SCAN_DEPTH=0.00
		SCAN_OFFAXIS_INPLANE=0.00
		SCAN_ANGLE=0.00
		SCAN_DIAGONAL=NOT_DIAGONAL
		MEAS_PRESET=TIME_PRESET
		MEAS_TIME=10.000
		MEAS_UNIT=GY
		PRESSURE=1013.25
		TEMPERATURE=20.00
		NORM_TEMPERATURE=20.00
		CORRECTION_FACTOR=1.0000
		CORRECTIONS=AIR_DENSITY_CORR;
		BEGIN_DATA
			-126.00		7.2856E-03
			-123.00		8.6449E-03
			-120.00		8.7919E-03
			-117.00		9.9076E-03
			-114.00		10.088E-03
			-111.00		10.652E-03
			-108.00		11.560E-03
			-105.00		12.383E-03
			-102.00		13.508E-03
			-99.00		14.736E-03
			-96.00		15.450E-03
			-93.00		17.372E-03
			-90.00		18.701E-03
			-87.00		20.954E-03
			-84.00		23.641E-03
			-81.00		25.707E-03
			-78.00		28.424E-03
			-75.00		32.226E-03
			-72.00		36.063E-03
			-69.00		41.965E-03
			-66.00		50.063E-03
			-63.00		61.377E-03
			-60.00		84.442E-03
			-57.00		151.86E-03
			-54.00		413.66E-03
			-51.00		591.60E-03
			-48.00		630.18E-03
			-45.00		641.62E-03
			-42.00		648.03E-03
			-39.00		655.06E-03
			-36.00		658.96E-03
			-33.00		658.11E-03
			-30.00		659.42E-03
			-27.00		661.68E-03
			-24.00		664.17E-03
			-21.00		664.40E-03
			-18.00		670.09E-03
			-15.00		669.26E-03
			-12.00		667.22E-03
			-9.00		669.51E-03
			-6.00		668.67E-03
			0.00		669.08E-03
			6.00		671.91E-03
			9.00		669.98E-03
			12.00		666.33E-03
			15.00		665.72E-03
			18.00		665.42E-03
			21.00		663.62E-03
			24.00		659.40E-03
			27.00		662.71E-03
			30.00		659.84E-03
			33.00		655.37E-03
			36.00		648.04E-03
			39.00		633.02E-03
			42.00		593.57E-03
			45.00		419.68E-03
			48.00		151.29E-03
			51.00		83.668E-03
			54.00		61.118E-03
			57.00		49.475E-03
			60.00		41.464E-03
			63.00		36.294E-03
			66.00		31.818E-03
			69.00		28.244E-03
			72.00		25.620E-03
			75.00		22.988E-03
			78.00		20.508E-03
			81.00		18.865E-03
			84.00		17.390E-03
			87.00		16.619E-03
			90.00		15.033E-03
			93.00		13.646E-03
			96.00		12.279E-03
			99.00		11.704E-03
			102.00		11.042E-03
			105.00		10.285E-03
			108.00		9.7593E-03
			111.00		8.5429E-03
			114.00		8.2540E-03
			117.00		7.5186E-03
			120.00		6.9963E-03
			123.00		6.6624E-03
			126.00		6.6831E-03
		END_DATA
	END_SCAN  4
	BEGIN_SCAN  5
		TASK_NAME=MODE_INTERVAL
		PROGRAM=BeamAdjust 1.2
		MEAS_DATE=07-Oct-2010 14:02:26
		LINAC=A4
		MODALITY=X
		INPLANE_AXIS_DIR=TARGET_GUN
		CROSSPLANE_AXIS_DIR=LEFT_RIGHT
		DEPTH_AXIS_DIR=UP_DOWN
		ENERGY=6.00
		SSD=950.00
		WEDGE=None
		FIELD_INPLANE=100.00
		FIELD_CROSSPLANE=100.00
		FIELD_TYPE=RECTANGULAR
		GANTRY=0.00
		GANTRY_UPRIGHT_POSITION=0
		GANTRY_ROTATION=CW
		COLL_ANGLE=90.00
		COLL_OFFSET_INPLANE=0.00
		COLL_OFFSET_CROSSPLANE=0.00
		SCAN_DEVICE=STARCHECK
		ELECTROMETER=2D_ARRAY_INTERFACE
		DETECTOR=STARCHECK
		SCAN_CURVETYPE=CROSSPLANE_PROFILE
		SCAN_DEPTH=0.00
		SCAN_OFFAXIS_INPLANE=50.00
		SCAN_ANGLE=0.00
		SCAN_DIAGONAL=NOT_DIAGONAL
		MEAS_PRESET=TIME_PRESET
		MEAS_TIME=10.000
		MEAS_UNIT=GY
		PRESSURE=1013.25
		TEMPERATURE=20.00
		NORM_TEMPERATURE=20.00
		CORRECTION_FACTOR=1.0000
		CORRECTIONS=AIR_DENSITY_CORR;
		BEGIN_DATA
			-30.00		267.61E-03
			-15.00		288.70E-03
			15.00		266.10E-03
			30.00		247.59E-03
		END_DATA
	END_SCAN  5
	BEGIN_SCAN  6
		TASK_NAME=MODE_INTERVAL
		PROGRAM=BeamAdjust 1.2
		MEAS_DATE=07-Oct-2010 14:02:26
		LINAC=A4
		MODALITY=X
		INPLANE_AXIS_DIR=TARGET_GUN
		CROSSPLANE_AXIS_DIR=LEFT_RIGHT
		DEPTH_AXIS_DIR=UP_DOWN
		ENERGY=6.00
		SSD=950.00
		WEDGE=None
		FIELD_INPLANE=100.00
		FIELD_CROSSPLANE=100.00
		FIELD_TYPE=RECTANGULAR
		GANTRY=0.00
		GANTRY_UPRIGHT_POSITION=0
		GANTRY_ROTATION=CW
		COLL_ANGLE=90.00
		COLL_OFFSET_INPLANE=0.00
		COLL_OFFSET_CROSSPLANE=0.00
		SCAN_DEVICE=STARCHECK
		ELECTROMETER=2D_ARRAY_INTERFACE
		DETECTOR=STARCHECK
		SCAN_CURVETYPE=CROSSPLANE_PROFILE
		SCAN_DEPTH=0.00
		SCAN_OFFAXIS_INPLANE=100.00
		SCAN_ANGLE=0.00
		SCAN_DIAGONAL=NOT_DIAGONAL
		MEAS_PRESET=TIME_PRESET
		MEAS_TIME=10.000
		MEAS_UNIT=GY
		PRESSURE=1013.25
		TEMPERATURE=20.00
		NORM_TEMPERATURE=20.00
		CORRECTION_FACTOR=1.0000
		CORRECTIONS=AIR_DENSITY_CORR;
		BEGIN_DATA
			-60.00		10.991E-03
			-30.00		15.081E-03
			30.00		14.270E-03
			60.00		8.4142E-03
		END_DATA
	END_SCAN  6
	BEGIN_SCAN  7
		TASK_NAME=MODE_INTERVAL
		PROGRAM=BeamAdjust 1.2
		MEAS_DATE=07-Oct-2010 14:02:26
		LINAC=A4
		MODALITY=X
		INPLANE_AXIS_DIR=TARGET_GUN
		CROSSPLANE_AXIS_DIR=LEFT_RIGHT
		DEPTH_AXIS_DIR=UP_DOWN
		ENERGY=6.00
		SSD=950.00
		WEDGE=None
		FIELD_INPLANE=100.00
		FIELD_CROSSPLANE=100.00
		FIELD_TYPE=RECTANGULAR
		GANTRY=0.00
		GANTRY_UPRIGHT_POSITION=0
		GANTRY_ROTATION=CW
		COLL_ANGLE=90.00
		COLL_OFFSET_INPLANE=0.00
		COLL_OFFSET_CROSSPLANE=0.00
		SCAN_DEVICE=STARCHECK
		ELECTROMETER=2D_ARRAY_INTERFACE
		DETECTOR=STARCHECK
		SCAN_CURVETYPE=CROSSPLANE_PROFILE
		SCAN_DEPTH=0.00
		SCAN_OFFAXIS_INPLANE=130.00
		SCAN_ANGLE=0.00
		SCAN_DIAGONAL=NOT_DIAGONAL
		MEAS_PRESET=TIME_PRESET
		MEAS_TIME=10.000
		MEAS_UNIT=GY
		PRESSURE=1013.25
		TEMPERATURE=20.00
		NORM_TEMPERATURE=20.00
		CORRECTION_FACTOR=1.0000
		CORRECTIONS=AIR_DENSITY_CORR;
		BEGIN_DATA
			-130.00		2.1692E-03
			-80.00		4.5865E-03
			-40.00		7.4767E-03
			40.00		6.5311E-03
			80.00		3.9718E-03
			130.00		2.8429E-03
		END_DATA
	END_SCAN  7
	BEGIN_SCAN  8
		TASK_NAME=MODE_INTERVAL
		PROGRAM=BeamAdjust 1.2
		MEAS_DATE=07-Oct-2010 14:02:26
		LINAC=A4
		MODALITY=X
		INPLANE_AXIS_DIR=TARGET_GUN
		CROSSPLANE_AXIS_DIR=LEFT_RIGHT
		DEPTH_AXIS_DIR=UP_DOWN
		ENERGY=6.00
		SSD=950.00
		WEDGE=None
		FIELD_INPLANE=100.00
		FIELD_CROSSPLANE=100.00
		FIELD_TYPE=RECTANGULAR
		GANTRY=0.00
		GANTRY_UPRIGHT_POSITION=0
		GANTRY_ROTATION=CW
		COLL_ANGLE=90.00
		COLL_OFFSET_INPLANE=0.00
		COLL_OFFSET_CROSSPLANE=0.00
		SCAN_DEVICE=STARCHECK
		ELECTROMETER=2D_ARRAY_INTERFACE
		DETECTOR=STARCHECK
		SCAN_CURVETYPE=INPLANE_PROFILE
		SCAN_DEPTH=0.00
		SCAN_OFFAXIS_CROSSPLANE=-130.00
		SCAN_ANGLE=0.00
		SCAN_DIAGONAL=NOT_DIAGONAL
		MEAS_PRESET=TIME_PRESET
		MEAS_TIME=10.000
		MEAS_UNIT=GY
		PRESSURE=1013.25
		TEMPERATURE=20.00
		NORM_TEMPERATURE=20.00
		CORRECTION_FACTOR=1.0000
		CORRECTIONS=AIR_DENSITY_CORR;
		BEGIN_DATA
			-130.00		2.8966E-03
			-125.00		2.9326E-03
			-120.00		3.0830E-03
			-115.00		3.5047E-03
			-110.00		3.8800E-03
			-105.00		3.8375E-03
			-100.00		4.3930E-03
			-95.00		4.9428E-03
			-90.00		5.2210E-03
			-85.00		4.5435E-03
			-80.00		4.6021E-03
			-75.00		5.2828E-03
			-70.00		5.2366E-03
			-65.00		5.5035E-03
			-60.00		5.5710E-03
			-55.00		6.4421E-03
			-50.00		4.5620E-03
			-45.00		5.1629E-03
			-40.00		5.5164E-03
			-35.00		5.8138E-03
			-30.00		5.9044E-03
			-25.00		5.8594E-03
			-20.00		6.2350E-03
			-15.00		5.7920E-03
			-10.00		5.8527E-03
			-5.00		6.8219E-03
			0.00		6.7309E-03
			5.00		6.8192E-03
			10.00		6.3500E-03
			15.00		6.3194E-03
			20.00		6.2266E-03
			25.00		5.7460E-03
			30.00		5.8842E-03
			35.00		5.9263E-03
			40.00		5.4528E-03
			45.00		5.3551E-03
			50.00		5.7614E-03
			55.00		5.0457E-03
			60.00		5.0051E-03
			65.00		4.5582E-03
			70.00		4.4233E-03
			75.00		4.3642E-03
			80.00		4.2371E-03
			85.00		3.9425E-03
			90.00		3.6600E-03
			95.00		3.5361E-03
			100.00		3.3731E-03
			105.00		2.9315E-03
			110.00		2.8005E-03
			115.00		2.8104E-03
			120.00		2.6747E-03
			125.00		2.8844E-03
			130.00		2.1692E-03
		END_DATA
	END_SCAN  8
	BEGIN_SCAN  9
		TASK_NAME=MODE_INTERVAL
		PROGRAM=BeamAdjust 1.2
		MEAS_DATE=07-Oct-2010 14:02:26
		LINAC=A4
		MODALITY=X
		INPLANE_AXIS_DIR=TARGET_GUN
		CROSSPLANE_AXIS_DIR=LEFT_RIGHT
		DEPTH_AXIS_DIR=UP_DOWN
		ENERGY=6.00
		SSD=950.00
		WEDGE=None
		FIELD_INPLANE=100.00
		FIELD_CROSSPLANE=100.00
		FIELD_TYPE=RECTANGULAR
		GANTRY=0.00
		GANTRY_UPRIGHT_POSITION=0
		GANTRY_ROTATION=CW
		COLL_ANGLE=90.00
		COLL_OFFSET_INPLANE=0.00
		COLL_OFFSET_CROSSPLANE=0.00
		SCAN_DEVICE=STARCHECK
		ELECTROMETER=2D_ARRAY_INTERFACE
		DETECTOR=STARCHECK
		SCAN_CURVETYPE=INPLANE_PROFILE
		SCAN_DEPTH=0.00
		SCAN_OFFAXIS_CROSSPLANE=-100.00
		SCAN_ANGLE=0.00
		SCAN_DIAGONAL=NOT_DIAGONAL
		MEAS_PRESET=TIME_PRESET
		MEAS_TIME=10.000
		MEAS_UNIT=GY
		PRESSURE=1013.25
		TEMPERATURE=20.00
		NORM_TEMPERATURE=20.00
		CORRECTION_FACTOR=1.0000
		CORRECTIONS=AIR_DENSITY_CORR;
		BEGIN_DATA
			-60.00		9.4551E-03
			-30.00		12.236E-03
			30.00		11.683E-03
			60.00		8.8499E-03
		END_DATA
	END_SCAN  9
	BEGIN_SCAN  10
		TASK_NAME=MODE_INTERVAL
		PROGRAM=BeamAdjust 1.2
		MEAS_DATE=07-Oct-2010 14:02:26
		LINAC=A4
		MODALITY=X
		INPLANE_AXIS_DIR=TARGET_GUN
		CROSSPLANE_AXIS_DIR=LEFT_RIGHT
		DEPTH_AXIS_DIR=UP_DOWN
		ENERGY=6.00
		SSD=950.00
		WEDGE=None
		FIELD_INPLANE=100.00
		FIELD_CROSSPLANE=100.00
		FIELD_TYPE=RECTANGULAR
		GANTRY=0.00
		GANTRY_UPRIGHT_POSITION=0
		GANTRY_ROTATION=CW
		COLL_ANGLE=90.00
		COLL_OFFSET_INPLANE=0.00
		COLL_OFFSET_CROSSPLANE=0.00
		SCAN_DEVICE=STARCHECK
		ELECTROMETER=2D_ARRAY_INTERFACE
		DETECTOR=STARCHECK
		SCAN_CURVETYPE=INPLANE_PROFILE
		SCAN_DEPTH=0.00
		SCAN_OFFAXIS_CROSSPLANE=-50.00
		SCAN_ANGLE=0.00
		SCAN_DIAGONAL=NOT_DIAGONAL
		MEAS_PRESET=TIME_PRESET
		MEAS_TIME=10.000
		MEAS_UNIT=GY
		PRESSURE=1013.25
		TEMPERATURE=20.00
		NORM_TEMPERATURE=20.00
		CORRECTION_FACTOR=1.0000
		CORRECTIONS=AIR_DENSITY_CORR;
		BEGIN_DATA
			-30.00		623.61E-03
			-15.00		623.54E-03
			15.00		622.44E-03
			30.00		615.62E-03
		END_DATA
	END_SCAN  10
	BEGIN_SCAN  11
		TASK_NAME=MODE_INTERVAL
		PROGRAM=BeamAdjust 1.2
		MEAS_DATE=07-Oct-2010 14:02:26
		LINAC=A4
		MODALITY=X
		INPLANE_AXIS_DIR=TARGET_GUN
		CROSSPLANE_AXIS_DIR=LEFT_RIGHT
		DEPTH_AXIS_DIR=UP_DOWN
		ENERGY=6.00
		SSD=950.00
		WEDGE=None
		FIELD_INPLANE=100.00
		FIELD_CROSSPLANE=100.00
		FIELD_TYPE=RECTANGULAR
		GANTRY=0.00
		GANTRY_UPRIGHT_POSITION=0
		GANTRY_ROTATION=CW
		COLL_ANGLE=90.00
		COLL_OFFSET_INPLANE=0.00
		COLL_OFFSET_CROSSPLANE=0.00
		SCAN_DEVICE=STARCHECK
		ELECTROMETER=2D_ARRAY_INTERFACE
		DETECTOR=STARCHECK
		SCAN_CURVETYPE=INPLANE_PROFILE
		SCAN_DEPTH=0.00
		SCAN_OFFAXIS_CROSSPLANE=0.00
		SCAN_ANGLE=0.00
		SCAN_DIAGONAL=NOT_DIAGONAL
		MEAS_PRESET=TIME_PRESET
		MEAS_TIME=10.000
		MEAS_UNIT=GY
		PRESSURE=1013.25
		TEMPERATURE=20.00
		NORM_TEMPERATURE=20.00
		CORRECTION_FACTOR=1.0000
		CORRECTIONS=AIR_DENSITY_CORR;
		BEGIN_DATA
			-126.00		9.2374E-03
			-123.00		8.8477E-03
			-120.00		10.425E-03
			-117.00		11.546E-03
			-114.00		12.026E-03
			-111.00		12.598E-03
			-108.00		13.720E-03
			-105.00		14.769E-03
			-102.00		16.241E-03
			-99.00		16.911E-03
			-96.00		18.409E-03
			-93.00		20.418E-03
			-90.00		21.752E-03
			-87.00		24.065E-03
			-84.00		25.899E-03
			-81.00		28.106E-03
			-78.00		30.667E-03
			-75.00		33.173E-03
			-72.00		36.483E-03
			-69.00		40.449E-03
			-66.00		45.722E-03
			-63.00		52.354E-03
			-60.00		62.176E-03
			-57.00		81.648E-03
			-54.00		130.34E-03
			-51.00		293.94E-03
			-48.00		551.13E-03
			-45.00		623.57E-03
			-42.00		643.60E-03
			-39.00		653.13E-03
			-36.00		658.33E-03
			-33.00		662.01E-03
			-30.00		665.89E-03
			-27.00		666.94E-03
			-24.00		666.04E-03
			-21.00		665.22E-03
			-18.00		671.31E-03
			-15.00		669.77E-03
			-12.00		671.38E-03
			-9.00		671.43E-03
			-6.00		669.00E-03
			0.00		669.08E-03
			6.00		673.18E-03
			9.00		671.55E-03
			12.00		670.65E-03
			15.00		668.90E-03
			18.00		664.43E-03
			21.00		664.17E-03
			24.00		660.78E-03
			27.00		662.32E-03
			30.00		657.98E-03
			33.00		655.96E-03
			36.00		653.30E-03
			39.00		642.33E-03
			42.00		630.36E-03
			45.00		597.93E-03
			48.00		441.16E-03
			51.00		192.46E-03
			54.00		99.413E-03
			57.00		70.092E-03
			60.00		56.752E-03
			63.00		48.689E-03
			66.00		43.651E-03
			69.00		38.874E-03
			72.00		34.947E-03
			75.00		31.413E-03
			78.00		28.214E-03
			81.00		26.444E-03
			84.00		24.366E-03
			87.00		22.775E-03
			90.00		21.324E-03
			93.00		19.357E-03
			96.00		18.074E-03
			99.00		16.607E-03
			102.00		15.103E-03
			105.00		13.910E-03
			108.00		13.566E-03
			111.00		12.253E-03
			114.00		11.686E-03
			117.00		10.942E-03
			120.00		10.439E-03
			123.00		9.6606E-03
			126.00		8.6843E-03
		END_DATA
	END_SCAN  11
	BEGIN_SCAN  12
		TASK_NAME=MODE_INTERVAL
		PROGRAM=BeamAdjust 1.2
		MEAS_DATE=07-Oct-2010 14:02:26
		LINAC=A4
		MODALITY=X
		INPLANE_AXIS_DIR=TARGET_GUN
		CROSSPLANE_AXIS_DIR=LEFT_RIGHT
		DEPTH_AXIS_DIR=UP_DOWN
		ENERGY=6.00
		SSD=950.00
		WEDGE=None
		FIELD_INPLANE=100.00
		FIELD_CROSSPLANE=100.00
		FIELD_TYPE=RECTANGULAR
		GANTRY=0.00
		GANTRY_UPRIGHT_POSITION=0
		GANTRY_ROTATION=CW
		COLL_ANGLE=90.00
		COLL_OFFSET_INPLANE=0.00
		COLL_OFFSET_CROSSPLANE=0.00
		SCAN_DEVICE=STARCHECK
		ELECTROMETER=2D_ARRAY_INTERFACE
		DETECTOR=STARCHECK
		SCAN_CURVETYPE=INPLANE_PROFILE
		SCAN_DEPTH=0.00
		SCAN_OFFAXIS_CROSSPLANE=50.00
		SCAN_ANGLE=0.00
		SCAN_DIAGONAL=NOT_DIAGONAL
		MEAS_PRESET=TIME_PRESET
		MEAS_TIME=10.000
		MEAS_UNIT=GY
		PRESSURE=1013.25
		TEMPERATURE=20.00
		NORM_TEMPERATURE=20.00
		CORRECTION_FACTOR=1.0000
		CORRECTIONS=AIR_DENSITY_CORR;
		BEGIN_DATA
			-30.00		80.800E-03
			-15.00		86.228E-03
			15.00		87.805E-03
			30.00		84.806E-03
		END_DATA
	END_SCAN  12
	BEGIN_SCAN  13
		TASK_NAME=MODE_INTERVAL
		PROGRAM=BeamAdjust 1.2
		MEAS_DATE=07-Oct-2010 14:02:26
		LINAC=A4
		MODALITY=X
		INPLANE_AXIS_DIR=TARGET_GUN
		CROSSPLANE_AXIS_DIR=LEFT_RIGHT
		DEPTH_AXIS_DIR=UP_DOWN
		ENERGY=6.00
		SSD=950.00
		WEDGE=None
		FIELD_INPLANE=100.00
		FIELD_CROSSPLANE=100.00
		FIELD_TYPE=RECTANGULAR
		GANTRY=0.00
		GANTRY_UPRIGHT_POSITION=0
		GANTRY_ROTATION=CW
		COLL_ANGLE=90.00
		COLL_OFFSET_INPLANE=0.00
		COLL_OFFSET_CROSSPLANE=0.00
		SCAN_DEVICE=STARCHECK
		ELECTROMETER=2D_ARRAY_INTERFACE
		DETECTOR=STARCHECK
		SCAN_CURVETYPE=INPLANE_PROFILE
		SCAN_DEPTH=0.00
		SCAN_OFFAXIS_CROSSPLANE=100.00
		SCAN_ANGLE=0.00
		SCAN_DIAGONAL=NOT_DIAGONAL
		MEAS_PRESET=TIME_PRESET
		MEAS_TIME=10.000
		MEAS_UNIT=GY
		PRESSURE=1013.25
		TEMPERATURE=20.00
		NORM_TEMPERATURE=20.00
		CORRECTION_FACTOR=1.0000
		CORRECTIONS=AIR_DENSITY_CORR;
		BEGIN_DATA
			-60.00		7.5591E-03
			-30.00		9.6697E-03
			30.00		9.7159E-03
			60.00		7.0142E-03
		END_DATA
	END_SCAN  13
	BEGIN_SCAN  14
		TASK_NAME=MODE_INTERVAL
		PROGRAM=BeamAdjust 1.2
		MEAS_DATE=07-Oct-2010 14:02:26
		LINAC=A4
		MODALITY=X
		INPLANE_AXIS_DIR=TARGET_GUN
		CROSSPLANE_AXIS_DIR=LEFT_RIGHT
		DEPTH_AXIS_DIR=UP_DOWN
		ENERGY=6.00
		SSD=950.00
		WEDGE=None
		FIELD_INPLANE=100.00
		FIELD_CROSSPLANE=100.00
		FIELD_TYPE=RECTANGULAR
		GANTRY=0.00
		GANTRY_UPRIGHT_POSITION=0
		GANTRY_ROTATION=CW
		COLL_ANGLE=90.00
		COLL_OFFSET_INPLANE=0.00
		COLL_OFFSET_CROSSPLANE=0.00
		SCAN_DEVICE=STARCHECK
		ELECTROMETER=2D_ARRAY_INTERFACE
		DETECTOR=STARCHECK
		SCAN_CURVETYPE=INPLANE_PROFILE
		SCAN_DEPTH=0.00
		SCAN_OFFAXIS_CROSSPLANE=130.00
		SCAN_ANGLE=0.00
		SCAN_DIAGONAL=NOT_DIAGONAL
		MEAS_PRESET=TIME_PRESET
		MEAS_TIME=10.000
		MEAS_UNIT=GY
		PRESSURE=1013.25
		TEMPERATURE=20.00
		NORM_TEMPERATURE=20.00
		CORRECTION_FACTOR=1.0000
		CORRECTIONS=AIR_DENSITY_CORR;
		BEGIN_DATA
			-130.00		1.9269E-03
			-125.00		2.4825E-03
			-120.00		2.5156E-03
			-115.00		2.6589E-03
			-110.00		2.4944E-03
			-105.00		2.7178E-03
			-100.00		3.1041E-03
			-95.00		3.0552E-03
			-90.00		2.3400E-03
			-85.00		3.4024E-03
			-80.00		4.0043E-03
			-75.00		3.2834E-03
			-70.00		3.4739E-03
			-65.00		3.4211E-03
			-60.00		4.1926E-03
			-55.00		4.0830E-03
			-50.00		3.7096E-03
			-45.00		4.4272E-03
			-40.00		4.7059E-03
			-35.00		5.0480E-03
			-30.00		5.0855E-03
			-25.00		4.7709E-03
			-20.00		5.1226E-03
			-15.00		4.8556E-03
			-10.00		4.9734E-03
			-5.00		5.5789E-03
			0.00		5.7348E-03
			5.00		5.1315E-03
			10.00		5.2223E-03
			15.00		5.0850E-03
			20.00		5.0227E-03
			25.00		5.0105E-03
			30.00		4.7490E-03
			35.00		4.9059E-03
			40.00		5.3459E-03
			45.00		4.8807E-03
			50.00		4.6938E-03
			55.00		5.0127E-03
			60.00		4.7064E-03
			65.00		3.6891E-03
			70.00		3.7681E-03
			75.00		3.7581E-03
			80.00		3.5624E-03
			85.00		3.2282E-03
			90.00		3.0349E-03
			95.00		2.8145E-03
			100.00		3.1873E-03
			105.00		2.6721E-03
			110.00		2.7329E-03
			115.00		2.7682E-03
			120.00		2.6858E-03
			125.00		2.4040E-03
			130.00		2.8429E-03
		END_DATA
	END_SCAN  14
	BEGIN_SCAN  15
		TASK_NAME=MODE_INTERVAL
		PROGRAM=BeamAdjust 1.2
		MEAS_DATE=07-Oct-2010 14:02:26
		LINAC=A4
		MODALITY=X
		INPLANE_AXIS_DIR=TARGET_GUN
		CROSSPLANE_AXIS_DIR=LEFT_RIGHT
		DEPTH_AXIS_DIR=UP_DOWN
		ENERGY=6.00
		SSD=950.00
		WEDGE=None
		FIELD_INPLANE=100.00
		FIELD_CROSSPLANE=100.00
		FIELD_TYPE=RECTANGULAR
		GANTRY=0.00
		GANTRY_UPRIGHT_POSITION=0
		GANTRY_ROTATION=CW
		COLL_ANGLE=90.00
		COLL_OFFSET_INPLANE=0.00
		COLL_OFFSET_CROSSPLANE=0.00
		SCAN_DEVICE=STARCHECK
		ELECTROMETER=2D_ARRAY_INTERFACE
		DETECTOR=STARCHECK
		SCAN_CURVETYPE=INPLANE_PROFILE
		SCAN_DEPTH=0.00
		SCAN_OFFAXIS_CROSSPLANE=0.00
		SCAN_ANGLE=0.00
		SCAN_DIAGONAL=FIRST_DIAGONAL
		MEAS_PRESET=TIME_PRESET
		MEAS_TIME=10.000
		MEAS_UNIT=GY
		PRESSURE=1013.25
		TEMPERATURE=20.00
		NORM_TEMPERATURE=20.00
		CORRECTION_FACTOR=1.0000
		CORRECTIONS=AIR_DENSITY_CORR;
		BEGIN_DATA
			-172.40		3.1660E-03
			-169.40		3.1374E-03
			-166.40		4.0581E-03
			-163.40		3.9421E-03
			-160.40		4.2996E-03
			-157.40		4.4029E-03
			-154.40		4.4636E-03
			-151.40		4.3551E-03
			-148.40		5.0584E-03
			-145.40		5.6364E-03
			-142.40		6.5159E-03
			-139.40		6.6337E-03
			-136.40		6.7110E-03
			-133.40		7.3654E-03
			-130.40		8.2645E-03
			-127.40		8.2042E-03
			-124.40		8.9040E-03
			-121.40		9.8200E-03
			-118.40		10.644E-03
			-115.40		11.414E-03
			-112.40		12.391E-03
			-109.40		13.831E-03
			-106.40		15.095E-03
			-103.40		16.084E-03
			-100.40		17.529E-03
			-97.40		19.986E-03
			-94.40		22.406E-03
			-91.40		25.021E-03
			-88.40		29.112E-03
			-85.40		33.010E-03
			-82.40		39.623E-03
			-79.40		51.729E-03
			-76.40		84.727E-03
			-73.40		197.44E-03
			-70.40		372.02E-03
			-67.40		514.60E-03
			-64.40		590.42E-03
			-61.40		620.04E-03
			-58.40		633.52E-03
			-55.40		642.55E-03
			-52.40		648.04E-03
			-49.40		652.56E-03
			-46.40		654.62E-03
			-43.40		656.28E-03
			-40.40		659.32E-03
			-37.40		663.81E-03
			-34.40		662.92E-03
			-31.40		664.53E-03
			-28.40		662.95E-03
			-25.40		665.66E-03
			-22.40		666.63E-03
			-19.40		667.26E-03
			-16.40		670.42E-03
			-13.40		671.53E-03
			0.00		669.08E-03
			13.40		670.54E-03
			16.40		666.96E-03
			19.40		666.52E-03
			22.40		665.40E-03
			25.40		664.29E-03
			28.40		662.73E-03
			31.40		660.17E-03
			34.40		656.57E-03
			37.40		658.57E-03
			40.40		655.43E-03
			43.40		651.62E-03
			46.40		648.52E-03
			49.40		640.64E-03
			52.40		631.81E-03
			55.40		610.71E-03
			58.40		573.59E-03
			61.40		471.97E-03
			64.40		288.43E-03
			67.40		121.71E-03
			70.40		60.680E-03
			73.40		43.069E-03
			76.40		34.366E-03
			79.40		29.304E-03
			82.40		26.058E-03
			85.40		22.923E-03
			88.40		21.319E-03
			91.40		18.501E-03
			94.40		16.992E-03
			97.40		15.456E-03
			100.40		14.592E-03
			103.40		13.527E-03
			106.40		12.066E-03
			109.40		11.301E-03
			112.40		9.6621E-03
			115.40		9.4350E-03
			118.40		8.4391E-03
			121.40		8.0354E-03
			124.40		7.5529E-03
			127.40		7.0794E-03
			130.40		6.5537E-03
			133.40		5.7901E-03
			136.40		5.0699E-03
			139.40		4.8005E-03
			142.40		4.9395E-03
			145.40		4.3701E-03
			148.40		4.3011E-03
			151.40		3.7413E-03
			154.40		3.9093E-03
			157.40		3.7702E-03
			160.40		2.8360E-03
			163.40		2.7361E-03
			166.40		3.0149E-03
			169.40		2.7337E-03
			172.40		3.0339E-03
		END_DATA
	END_SCAN  15
	BEGIN_SCAN  16
		TASK_NAME=MODE_INTERVAL
		PROGRAM=BeamAdjust 1.2
		MEAS_DATE=07-Oct-2010 14:02:26
		LINAC=A4
		MODALITY=X
		INPLANE_AXIS_DIR=GUN_TARGET
		CROSSPLANE_AXIS_DIR=LEFT_RIGHT
		DEPTH_AXIS_DIR=UP_DOWN
		ENERGY=6.00
		SSD=950.00
		WEDGE=None
		FIELD_INPLANE=100.00
		FIELD_CROSSPLANE=100.00
		FIELD_TYPE=RECTANGULAR
		GANTRY=0.00
		GANTRY_UPRIGHT_POSITION=0
		GANTRY_ROTATION=CW
		COLL_ANGLE=90.00
		COLL_OFFSET_INPLANE=0.00
		COLL_OFFSET_CROSSPLANE=0.00
		SCAN_DEVICE=STARCHECK
		ELECTROMETER=2D_ARRAY_INTERFACE
		DETECTOR=STARCHECK
		SCAN_CURVETYPE=INPLANE_PROFILE
		SCAN_DEPTH=0.00
		SCAN_OFFAXIS_CROSSPLANE=0.00
		SCAN_ANGLE=0.00
		SCAN_DIAGONAL=SECOND_DIAGONAL
		MEAS_PRESET=TIME_PRESET
		MEAS_TIME=10.000
		MEAS_UNIT=GY
		PRESSURE=1013.25
		TEMPERATURE=20.00
		NORM_TEMPERATURE=20.00
		CORRECTION_FACTOR=1.0000
		CORRECTIONS=AIR_DENSITY_CORR;
		BEGIN_DATA
			-172.40		2.6064E-03
			-169.40		2.8948E-03
			-166.40		2.9159E-03
			-163.40		3.0179E-03
			-160.40		3.3280E-03
			-157.40		3.4355E-03
			-154.40		3.8180E-03
			-151.40		4.1403E-03
			-148.40		4.3998E-03
			-145.40		4.5500E-03
			-142.40		5.0477E-03
			-139.40		5.1345E-03
			-136.40		5.4160E-03
			-133.40		6.8362E-03
			-130.40		6.4008E-03
			-127.40		7.5089E-03
			-124.40		7.6507E-03
			-121.40		8.2147E-03
			-118.40		8.9068E-03
			-115.40		9.2170E-03
			-112.40		9.9389E-03
			-109.40		11.055E-03
			-106.40		11.898E-03
			-103.40		13.151E-03
			-100.40		14.604E-03
			-97.40		15.739E-03
			-94.40		17.153E-03
			-91.40		19.715E-03
			-88.40		20.525E-03
			-85.40		23.108E-03
			-82.40		26.399E-03
			-79.40		30.418E-03
			-76.40		35.670E-03
			-73.40		44.894E-03
			-70.40		66.193E-03
			-67.40		141.38E-03
			-64.40		309.07E-03
			-61.40		473.22E-03
			-58.40		579.60E-03
			-55.40		618.16E-03
			-52.40		638.53E-03
			-49.40		647.59E-03
			-46.40		652.77E-03
			-43.40		657.41E-03
			-40.40		660.00E-03
			-37.40		663.97E-03
			-34.40		663.89E-03
			-31.40		665.32E-03
			-28.40		667.93E-03
			-25.40		666.87E-03
			-22.40		664.97E-03
			-19.40		668.01E-03
			-16.40		668.94E-03
			-13.40		671.88E-03
			0.00		669.08E-03
			13.40		672.62E-03
			16.40		670.21E-03
			19.40		666.39E-03
			22.40		663.23E-03
			25.40		662.90E-03
			28.40		662.17E-03
			31.40		660.86E-03
			34.40		658.43E-03
			37.40		657.59E-03
			40.40		656.40E-03
			43.40		654.35E-03
			46.40		652.80E-03
			49.40		649.07E-03
			52.40		641.32E-03
			55.40		634.21E-03
			58.40		625.50E-03
			61.40		601.91E-03
			64.40		544.46E-03
			67.40		426.27E-03
			70.40		266.40E-03
			73.40		126.45E-03
			76.40		64.482E-03
			79.40		44.747E-03
			82.40		36.812E-03
			85.40		31.317E-03
			88.40		27.583E-03
			91.40		24.662E-03
			94.40		21.745E-03
			97.40		20.516E-03
			100.40		17.323E-03
			103.40		15.545E-03
			106.40		14.674E-03
			109.40		13.099E-03
			112.40		12.295E-03
			115.40		11.044E-03
			118.40		10.191E-03
			121.40		9.5569E-03
			124.40		8.5043E-03
			127.40		7.8516E-03
			130.40		7.9982E-03
			133.40		7.2029E-03
			136.40		6.2720E-03
			139.40		6.8691E-03
			142.40		5.9164E-03
			145.40		5.7795E-03
			148.40		4.9884E-03
			151.40		4.6172E-03
			154.40		4.4388E-03
			157.40		4.2574E-03
			160.40		4.0086E-03
			163.40		4.3120E-03
			166.40		4.0300E-03
			169.40		3.1250E-03
			172.40		2.8595E-03
		END_DATA
	END_SCAN  16
END_SCAN_DATA
