BEGIN_SCAN_DATA
	FORMAT=CC-Export V1.9                  
	FILE_CREATION_DATE=07-Oct-2010 14:02:52
	LAST_MODIFIED=07-Oct-2010 14:02:52
	BEGIN_SCAN  1
		TASK_NAME=MODE_INTERVAL
		PROGRAM=BeamAdjust 1.2
		MEAS_DATE=07-Oct-2010 14:02:52
		LINAC=A4
		MODALITY=X
		INPLANE_AXIS_DIR=TARGET_GUN
		CROSSPLANE_AXIS_DIR=LEFT_RIGHT
		DEPTH_AXIS_DIR=UP_DOWN
		ENERGY=6.00
		SSD=950.00
		WEDGE=None
		FIELD_INPLANE=100.00
		FIELD_CROSSPLANE=100.00
		FIELD_TYPE=RECTANGULAR
		GANTRY=0.00
		GANTRY_UPRIGHT_POSITION=0
		GANTRY_ROTATION=CW
		COLL_ANGLE=90.00
		COLL_OFFSET_INPLANE=0.00
		COLL_OFFSET_CROSSPLANE=0.00
		SCAN_DEVICE=STARCHECK
		ELECTROMETER=2D_ARRAY_INTERFACE
		DETECTOR=STARCHECK
		SCAN_CURVETYPE=CROSSPLANE_PROFILE
		SCAN_DEPTH=0.00
		SCAN_OFFAXIS_INPLANE=-130.00
		SCAN_ANGLE=0.00
		SCAN_DIAGONAL=NOT_DIAGONAL
		MEAS_PRESET=TIME_PRESET
		MEAS_TIME=10.000
		MEAS_UNIT=GY
		PRESSURE=1013.25
		TEMPERATURE=20.00
		NORM_TEMPERATURE=20.00
		CORRECTION_FACTOR=1.0000
		CORRECTIONS=AIR_DENSITY_CORR;
		BEGIN_DATA
			-130.00		2.6545E-03
			-80.00		4.8156E-03
			-40.00		7.7045E-03
			40.00		6.7417E-03
			80.00		3.7996E-03
			130.00		1.7998E-03
		END_DATA
	END_SCAN  1
	BEGIN_SCAN  2
		TASK_NAME=MODE_INTERVAL
		PROGRAM=BeamAdjust 1.2
		MEAS_DATE=07-Oct-2010 14:02:52
		LINAC=A4
		MODALITY=X
		INPLANE_AXIS_DIR=TARGET_GUN
		CROSSPLANE_AXIS_DIR=LEFT_RIGHT
		DEPTH_AXIS_DIR=UP_DOWN
		ENERGY=6.00
		SSD=950.00
		WEDGE=None
		FIELD_INPLANE=100.00
		FIELD_CROSSPLANE=100.00
		FIELD_TYPE=RECTANGULAR
		GANTRY=0.00
		GANTRY_UPRIGHT_POSITION=0
		GANTRY_ROTATION=CW
		COLL_ANGLE=90.00
		COLL_OFFSET_INPLANE=0.00
		COLL_OFFSET_CROSSPLANE=0.00
		SCAN_DEVICE=STARCHECK
		ELECTROMETER=2D_ARRAY_INTERFACE
		DETECTOR=STARCHECK
		SCAN_CURVETYPE=CROSSPLANE_PROFILE
		SCAN_DEPTH=0.00
		SCAN_OFFAXIS_INPLANE=-100.00
		SCAN_ANGLE=0.00
		SCAN_DIAGONAL=NOT_DIAGONAL
		MEAS_PRESET=TIME_PRESET
		MEAS_TIME=10.000
		MEAS_UNIT=GY
		PRESSURE=1013.25
		TEMPERATURE=20.00
		NORM_TEMPERATURE=20.00
		CORRECTION_FACTOR=1.0000
		CORRECTIONS=AIR_DENSITY_CORR;
		BEGIN_DATA
			-60.00		10.993E-03
			-30.00		14.533E-03
			30.00		14.996E-03
			60.00		9.0509E-03
		END_DATA
	END_SCAN  2
	BEGIN_SCAN  3
		TASK_NAME=MODE_INTERVAL
		PROGRAM=BeamAdjust 1.2
		MEAS_DATE=07-Oct-2010 14:02:52
		LINAC=A4
		MODALITY=X
		INPLANE_AXIS_DIR=TARGET_GUN
		CROSSPLANE_AXIS_DIR=LEFT_RIGHT
		DEPTH_AXIS_DIR=UP_DOWN
		ENERGY=6.00
		SSD=950.00
		WEDGE=None
		FIELD_INPLANE=100.00
		FIELD_CROSSPLANE=100.00
		FIELD_TYPE=RECTANGULAR
		GANTRY=0.00
		GANTRY_UPRIGHT_POSITION=0
		GANTRY_ROTATION=CW
		COLL_ANGLE=90.00
		COLL_OFFSET_INPLANE=0.00
		COLL_OFFSET_CROSSPLANE=0.00
		SCAN_DEVICE=STARCHECK
		ELECTROMETER=2D_ARRAY_INTERFACE
		DETECTOR=STARCHECK
		SCAN_CURVETYPE=CROSSPLANE_PROFILE
		SCAN_DEPTH=0.00
		SCAN_OFFAXIS_INPLANE=-50.00
		SCAN_ANGLE=0.00
		SCAN_DIAGONAL=NOT_DIAGONAL
		MEAS_PRESET=TIME_PRESET
		MEAS_TIME=10.000
		MEAS_UNIT=GY
		PRESSURE=1013.25
		TEMPERATURE=20.00
		NORM_TEMPERATURE=20.00
		CORRECTION_FACTOR=1.0000
		CORRECTIONS=AIR_DENSITY_CORR;
		BEGIN_DATA
			-30.00		384.52E-03
			-15.00		378.38E-03
			15.00		389.23E-03
			30.00		375.31E-03
		END_DATA
	END_SCAN  3
	BEGIN_SCAN  4
		TASK_NAME=MODE_INTERVAL
		PROGRAM=BeamAdjust 1.2
		MEAS_DATE=07-Oct-2010 14:02:52
		LINAC=A4
		MODALITY=X
		INPLANE_AXIS_DIR=TARGET_GUN
		CROSSPLANE_AXIS_DIR=LEFT_RIGHT
		DEPTH_AXIS_DIR=UP_DOWN
		ENERGY=6.00
		SSD=950.00
		WEDGE=None
		FIELD_INPLANE=100.00
		FIELD_CROSSPLANE=100.00
		FIELD_TYPE=RECTANGULAR
		GANTRY=0.00
		GANTRY_UPRIGHT_POSITION=0
		GANTRY_ROTATION=CW
		COLL_ANGLE=90.00
		COLL_OFFSET_INPLANE=0.00
		COLL_OFFSET_CROSSPLANE=0.00
		SCAN_DEVICE=STARCHECK
		ELECTROMETER=2D_ARRAY_INTERFACE
		DETECTOR=STARCHECK
		SCAN_CURVETYPE=CROSSPLANE_PROFILE
		SCAN_DEPTH=0.00
		SCAN_OFFAXIS_INPLANE=0.00
		SCAN_ANGLE=0.00
		SCAN_DIAGONAL=NOT_DIAGONAL
		MEAS_PRESET=TIME_PRESET
		MEAS_TIME=10.000
		MEAS_UNIT=GY
		PRESSURE=1013.25
		TEMPERATURE=20.00
		NORM_TEMPERATURE=20.00
		CORRECTION_FACTOR=1.0000
		CORRECTIONS=AIR_DENSITY_CORR;
		BEGIN_DATA
			-126.00		7.8079E-03
			-123.00		8.2970E-03
			-120.00		8.7057E-03
			-117.00		9.6126E-03
			-114.00		10.157E-03
			-111.00		10.829E-03
			-108.00		11.644E-03
			-105.00		12.679E-03
			-102.00		13.320E-03
			-99.00		14.564E-03
			-96.00		15.958E-03
			-93.00		17.715E-03
			-90.00		19.098E-03
			-87.00		20.985E-03
			-84.00		24.216E-03
			-81.00		25.971E-03
			-78.00		28.603E-03
			-75.00		32.633E-03
			-72.00		36.125E-03
			-69.00		42.041E-03
			-66.00		50.569E-03
			-63.00		62.756E-03
			-60.00		87.981E-03
			-57.00		166.44E-03
			-54.00		444.46E-03
			-51.00		597.97E-03
			-48.00		632.27E-03
			-45.00		642.72E-03
			-42.00		648.91E-03
			-39.00		656.00E-03
			-36.00		659.90E-03
			-33.00		658.92E-03
			-30.00		659.86E-03
			-27.00		661.83E-03
			-24.00		664.52E-03
			-21.00		664.66E-03
			-18.00		670.39E-03
			-15.00		669.23E-03
			-12.00		666.68E-03
			-9.00		668.68E-03
			-6.00		668.27E-03
			0.00		669.15E-03
			6.00		672.41E-03
			9.00		670.30E-03
			12.00		666.61E-03
			15.00		665.63E-03
			18.00		665.43E-03
			21.00		663.50E-03
			24.00		659.73E-03
			27.00		662.87E-03
			30.00		659.69E-03
			33.00		655.02E-03
			36.00		647.07E-03
			39.00		630.84E-03
			42.00		587.29E-03
			45.00		387.99E-03
			48.00		139.56E-03
			51.00		80.021E-03
			54.00		59.286E-03
			57.00		48.154E-03
			60.00		40.765E-03
			63.00		35.822E-03
			66.00		31.488E-03
			69.00		27.811E-03
			72.00		25.173E-03
			75.00		22.762E-03
			78.00		20.447E-03
			81.00		18.448E-03
			84.00		17.232E-03
			87.00		15.542E-03
			90.00		15.197E-03
			93.00		13.643E-03
			96.00		12.314E-03
			99.00		11.449E-03
			102.00		10.616E-03
			105.00		9.8917E-03
			108.00		9.3162E-03
			111.00		8.0972E-03
			114.00		7.9308E-03
			117.00		7.5422E-03
			120.00		6.5856E-03
			123.00		6.7603E-03
			126.00		6.7186E-03
		END_DATA
	END_SCAN  4
	BEGIN_SCAN  5
		TASK_NAME=MODE_INTERVAL
		PROGRAM=BeamAdjust 1.2
		MEAS_DATE=07-Oct-2010 14:02:52
		LINAC=A4
		MODALITY=X
		INPLANE_AXIS_DIR=TARGET_GUN
		CROSSPLANE_AXIS_DIR=LEFT_RIGHT
		DEPTH_AXIS_DIR=UP_DOWN
		ENERGY=6.00
		SSD=950.00
		WEDGE=None
		FIELD_INPLANE=100.00
		FIELD_CROSSPLANE=100.00
		FIELD_TYPE=RECTANGULAR
		GANTRY=0.00
		GANTRY_UPRIGHT_POSITION=0
		GANTRY_ROTATION=CW
		COLL_ANGLE=90.00
		COLL_OFFSET_INPLANE=0.00
		COLL_OFFSET_CROSSPLANE=0.00
		SCAN_DEVICE=STARCHECK
		ELECTROMETER=2D_ARRAY_INTERFACE
		DETECTOR=STARCHECK
		SCAN_CURVETYPE=CROSSPLANE_PROFILE
		SCAN_DEPTH=0.00
		SCAN_OFFAXIS_INPLANE=50.00
		SCAN_ANGLE=0.00
		SCAN_DIAGONAL=NOT_DIAGONAL
		MEAS_PRESET=TIME_PRESET
		MEAS_TIME=10.000
		MEAS_UNIT=GY
		PRESSURE=1013.25
		TEMPERATURE=20.00
		NORM_TEMPERATURE=20.00
		CORRECTION_FACTOR=1.0000
		CORRECTIONS=AIR_DENSITY_CORR;
		BEGIN_DATA
			-30.00		266.66E-03
			-15.00		286.91E-03
			15.00		264.68E-03
			30.00		245.04E-03
		END_DATA
	END_SCAN  5
	BEGIN_SCAN  6
		TASK_NAME=MODE_INTERVAL
		PROGRAM=BeamAdjust 1.2
		MEAS_DATE=07-Oct-2010 14:02:52
		LINAC=A4
		MODALITY=X
		INPLANE_AXIS_DIR=TARGET_GUN
		CROSSPLANE_AXIS_DIR=LEFT_RIGHT
		DEPTH_AXIS_DIR=UP_DOWN
		ENERGY=6.00
		SSD=950.00
		WEDGE=None
		FIELD_INPLANE=100.00
		FIELD_CROSSPLANE=100.00
		FIELD_TYPE=RECTANGULAR
		GANTRY=0.00
		GANTRY_UPRIGHT_POSITION=0
		GANTRY_ROTATION=CW
		COLL_ANGLE=90.00
		COLL_OFFSET_INPLANE=0.00
		COLL_OFFSET_CROSSPLANE=0.00
		SCAN_DEVICE=STARCHECK
		ELECTROMETER=2D_ARRAY_INTERFACE
		DETECTOR=STARCHECK
		SCAN_CURVETYPE=CROSSPLANE_PROFILE
		SCAN_DEPTH=0.00
		SCAN_OFFAXIS_INPLANE=100.00
		SCAN_ANGLE=0.00
		SCAN_DIAGONAL=NOT_DIAGONAL
		MEAS_PRESET=TIME_PRESET
		MEAS_TIME=10.000
		MEAS_UNIT=GY
		PRESSURE=1013.25
		TEMPERATURE=20.00
		NORM_TEMPERATURE=20.00
		CORRECTION_FACTOR=1.0000
		CORRECTIONS=AIR_DENSITY_CORR;
		BEGIN_DATA
			-60.00		11.029E-03
			-30.00		15.099E-03
			30.00		14.071E-03
			60.00		8.5075E-03
		END_DATA
	END_SCAN  6
	BEGIN_SCAN  7
		TASK_NAME=MODE_INTERVAL
		PROGRAM=BeamAdjust 1.2
		MEAS_DATE=07-Oct-2010 14:02:52
		LINAC=A4
		MODALITY=X
		INPLANE_AXIS_DIR=TARGET_GUN
		CROSSPLANE_AXIS_DIR=LEFT_RIGHT
		DEPTH_AXIS_DIR=UP_DOWN
		ENERGY=6.00
		SSD=950.00
		WEDGE=None
		FIELD_INPLANE=100.00
		FIELD_CROSSPLANE=100.00
		FIELD_TYPE=RECTANGULAR
		GANTRY=0.00
		GANTRY_UPRIGHT_POSITION=0
		GANTRY_ROTATION=CW
		COLL_ANGLE=90.00
		COLL_OFFSET_INPLANE=0.00
		COLL_OFFSET_CROSSPLANE=0.00
		SCAN_DEVICE=STARCHECK
		ELECTROMETER=2D_ARRAY_INTERFACE
		DETECTOR=STARCHECK
		SCAN_CURVETYPE=CROSSPLANE_PROFILE
		SCAN_DEPTH=0.00
		SCAN_OFFAXIS_INPLANE=130.00
		SCAN_ANGLE=0.00
		SCAN_DIAGONAL=NOT_DIAGONAL
		MEAS_PRESET=TIME_PRESET
		MEAS_TIME=10.000
		MEAS_UNIT=GY
		PRESSURE=1013.25
		TEMPERATURE=20.00
		NORM_TEMPERATURE=20.00
		CORRECTION_FACTOR=1.0000
		CORRECTIONS=AIR_DENSITY_CORR;
		BEGIN_DATA
			-130.00		2.0107E-03
			-80.00		4.6059E-03
			-40.00		7.7835E-03
			40.00		6.4362E-03
			80.00		3.9555E-03
			130.00		2.0209E-03
		END_DATA
	END_SCAN  7
	BEGIN_SCAN  8
		TASK_NAME=MODE_INTERVAL
		PROGRAM=BeamAdjust 1.2
		MEAS_DATE=07-Oct-2010 14:02:52
		LINAC=A4
		MODALITY=X
		INPLANE_AXIS_DIR=TARGET_GUN
		CROSSPLANE_AXIS_DIR=LEFT_RIGHT
		DEPTH_AXIS_DIR=UP_DOWN
		ENERGY=6.00
		SSD=950.00
		WEDGE=None
		FIELD_INPLANE=100.00
		FIELD_CROSSPLANE=100.00
		FIELD_TYPE=RECTANGULAR
		GANTRY=0.00
		GANTRY_UPRIGHT_POSITION=0
		GANTRY_ROTATION=CW
		COLL_ANGLE=90.00
		COLL_OFFSET_INPLANE=0.00
		COLL_OFFSET_CROSSPLANE=0.00
		SCAN_DEVICE=STARCHECK
		ELECTROMETER=2D_ARRAY_INTERFACE
		DETECTOR=STARCHECK
		SCAN_CURVETYPE=INPLANE_PROFILE
		SCAN_DEPTH=0.00
		SCAN_OFFAXIS_CROSSPLANE=-130.00
		SCAN_ANGLE=0.00
		SCAN_DIAGONAL=NOT_DIAGONAL
		MEAS_PRESET=TIME_PRESET
		MEAS_TIME=10.000
		MEAS_UNIT=GY
		PRESSURE=1013.25
		TEMPERATURE=20.00
		NORM_TEMPERATURE=20.00
		CORRECTION_FACTOR=1.0000
		CORRECTIONS=AIR_DENSITY_CORR;
		BEGIN_DATA
			-130.00		2.6545E-03
			-125.00		2.9208E-03
			-120.00		3.2105E-03
			-115.00		3.8064E-03
			-110.00		3.4048E-03
			-105.00		3.7021E-03
			-100.00		4.5417E-03
			-95.00		4.9591E-03
			-90.00		5.1795E-03
			-85.00		5.0653E-03
			-80.00		4.5842E-03
			-75.00		5.2784E-03
			-70.00		5.2915E-03
			-65.00		5.5272E-03
			-60.00		5.5489E-03
			-55.00		6.3976E-03
			-50.00		5.4158E-03
			-45.00		5.4494E-03
			-40.00		5.5385E-03
			-35.00		5.9454E-03
			-30.00		6.0697E-03
			-25.00		5.8238E-03
			-20.00		5.7447E-03
			-15.00		6.0832E-03
			-10.00		5.7450E-03
			-5.00		6.9194E-03
			0.00		7.0723E-03
			5.00		7.2874E-03
			10.00		6.5263E-03
			15.00		6.1354E-03
			20.00		6.5806E-03
			25.00		5.7847E-03
			30.00		5.9260E-03
			35.00		5.9770E-03
			40.00		5.5151E-03
			45.00		5.4012E-03
			50.00		5.7554E-03
			55.00		5.3132E-03
			60.00		5.1624E-03
			65.00		4.4901E-03
			70.00		4.5466E-03
			75.00		4.2780E-03
			80.00		3.8122E-03
			85.00		3.9366E-03
			90.00		3.6303E-03
			95.00		3.7037E-03
			100.00		3.5449E-03
			105.00		2.8433E-03
			110.00		3.1331E-03
			115.00		2.6010E-03
			120.00		2.8888E-03
			125.00		2.7863E-03
			130.00		2.0107E-03
		END_DATA
	END_SCAN  8
	BEGIN_SCAN  9
		TASK_NAME=MODE_INTERVAL
		PROGRAM=BeamAdjust 1.2
		MEAS_DATE=07-Oct-2010 14:02:52
		LINAC=A4
		MODALITY=X
		INPLANE_AXIS_DIR=TARGET_GUN
		CROSSPLANE_AXIS_DIR=LEFT_RIGHT
		DEPTH_AXIS_DIR=UP_DOWN
		ENERGY=6.00
		SSD=950.00
		WEDGE=None
		FIELD_INPLANE=100.00
		FIELD_CROSSPLANE=100.00
		FIELD_TYPE=RECTANGULAR
		GANTRY=0.00
		GANTRY_UPRIGHT_POSITION=0
		GANTRY_ROTATION=CW
		COLL_ANGLE=90.00
		COLL_OFFSET_INPLANE=0.00
		COLL_OFFSET_CROSSPLANE=0.00
		SCAN_DEVICE=STARCHECK
		ELECTROMETER=2D_ARRAY_INTERFACE
		DETECTOR=STARCHECK
		SCAN_CURVETYPE=INPLANE_PROFILE
		SCAN_DEPTH=0.00
		SCAN_OFFAXIS_CROSSPLANE=-100.00
		SCAN_ANGLE=0.00
		SCAN_DIAGONAL=NOT_DIAGONAL
		MEAS_PRESET=TIME_PRESET
		MEAS_TIME=10.000
		MEAS_UNIT=GY
		PRESSURE=1013.25
		TEMPERATURE=20.00
		NORM_TEMPERATURE=20.00
		CORRECTION_FACTOR=1.0000
		CORRECTIONS=AIR_DENSITY_CORR;
		BEGIN_DATA
			-60.00		9.5854E-03
			-30.00		11.940E-03
			30.00		11.572E-03
			60.00		9.1475E-03
		END_DATA
	END_SCAN  9
	BEGIN_SCAN  10
		TASK_NAME=MODE_INTERVAL
		PROGRAM=BeamAdjust 1.2
		MEAS_DATE=07-Oct-2010 14:02:52
		LINAC=A4
		MODALITY=X
		INPLANE_AXIS_DIR=TARGET_GUN
		CROSSPLANE_AXIS_DIR=LEFT_RIGHT
		DEPTH_AXIS_DIR=UP_DOWN
		ENERGY=6.00
		SSD=950.00
		WEDGE=None
		FIELD_INPLANE=100.00
		FIELD_CROSSPLANE=100.00
		FIELD_TYPE=RECTANGULAR
		GANTRY=0.00
		GANTRY_UPRIGHT_POSITION=0
		GANTRY_ROTATION=CW
		COLL_ANGLE=90.00
		COLL_OFFSET_INPLANE=0.00
		COLL_OFFSET_CROSSPLANE=0.00
		SCAN_DEVICE=STARCHECK
		ELECTROMETER=2D_ARRAY_INTERFACE
		DETECTOR=STARCHECK
		SCAN_CURVETYPE=INPLANE_PROFILE
		SCAN_DEPTH=0.00
		SCAN_OFFAXIS_CROSSPLANE=-50.00
		SCAN_ANGLE=0.00
		SCAN_DIAGONAL=NOT_DIAGONAL
		MEAS_PRESET=TIME_PRESET
		MEAS_TIME=10.000
		MEAS_UNIT=GY
		PRESSURE=1013.25
		TEMPERATURE=20.00
		NORM_TEMPERATURE=20.00
		CORRECTION_FACTOR=1.0000
		CORRECTIONS=AIR_DENSITY_CORR;
		BEGIN_DATA
			-30.00		627.76E-03
			-15.00		628.74E-03
			15.00		627.76E-03
			30.00		621.43E-03
		END_DATA
	END_SCAN  10
	BEGIN_SCAN  11
		TASK_NAME=MODE_INTERVAL
		PROGRAM=BeamAdjust 1.2
		MEAS_DATE=07-Oct-2010 14:02:52
		LINAC=A4
		MODALITY=X
		INPLANE_AXIS_DIR=TARGET_GUN
		CROSSPLANE_AXIS_DIR=LEFT_RIGHT
		DEPTH_AXIS_DIR=UP_DOWN
		ENERGY=6.00
		SSD=950.00
		WEDGE=None
		FIELD_INPLANE=100.00
		FIELD_CROSSPLANE=100.00
		FIELD_TYPE=RECTANGULAR
		GANTRY=0.00
		GANTRY_UPRIGHT_POSITION=0
		GANTRY_ROTATION=CW
		COLL_ANGLE=90.00
		COLL_OFFSET_INPLANE=0.00
		COLL_OFFSET_CROSSPLANE=0.00
		SCAN_DEVICE=STARCHECK
		ELECTROMETER=2D_ARRAY_INTERFACE
		DETECTOR=STARCHECK
		SCAN_CURVETYPE=INPLANE_PROFILE
		SCAN_DEPTH=0.00
		SCAN_OFFAXIS_CROSSPLANE=0.00
		SCAN_ANGLE=0.00
		SCAN_DIAGONAL=NOT_DIAGONAL
		MEAS_PRESET=TIME_PRESET
		MEAS_TIME=10.000
		MEAS_UNIT=GY
		PRESSURE=1013.25
		TEMPERATURE=20.00
		NORM_TEMPERATURE=20.00
		CORRECTION_FACTOR=1.0000
		CORRECTIONS=AIR_DENSITY_CORR;
		BEGIN_DATA
			-126.00		9.7554E-03
			-123.00		9.0768E-03
			-120.00		10.606E-03
			-117.00		11.640E-03
			-114.00		12.003E-03
			-111.00		12.828E-03
			-108.00		13.607E-03
			-105.00		14.546E-03
			-102.00		16.416E-03
			-99.00		16.895E-03
			-96.00		18.258E-03
			-93.00		20.507E-03
			-90.00		22.062E-03
			-87.00		23.758E-03
			-84.00		26.243E-03
			-81.00		28.162E-03
			-78.00		30.442E-03
			-75.00		33.180E-03
			-72.00		36.861E-03
			-69.00		40.552E-03
			-66.00		45.733E-03
			-63.00		52.569E-03
			-60.00		62.459E-03
			-57.00		82.061E-03
			-54.00		130.86E-03
			-51.00		294.74E-03
			-48.00		551.61E-03
			-45.00		623.14E-03
			-42.00		644.11E-03
			-39.00		653.06E-03
			-36.00		658.20E-03
			-33.00		661.89E-03
			-30.00		665.69E-03
			-27.00		666.61E-03
			-24.00		666.01E-03
			-21.00		665.10E-03
			-18.00		671.19E-03
			-15.00		670.11E-03
			-12.00		671.44E-03
			-9.00		671.70E-03
			-6.00		669.49E-03
			0.00		669.15E-03
			6.00		673.14E-03
			9.00		672.21E-03
			12.00		670.61E-03
			15.00		668.48E-03
			18.00		664.99E-03
			21.00		664.65E-03
			24.00		661.25E-03
			27.00		662.50E-03
			30.00		658.31E-03
			33.00		656.19E-03
			36.00		653.74E-03
			39.00		642.53E-03
			42.00		630.68E-03
			45.00		597.80E-03
			48.00		439.31E-03
			51.00		192.02E-03
			54.00		99.259E-03
			57.00		69.933E-03
			60.00		56.639E-03
			63.00		48.701E-03
			66.00		43.635E-03
			69.00		38.481E-03
			72.00		34.903E-03
			75.00		31.716E-03
			78.00		28.400E-03
			81.00		26.231E-03
			84.00		24.176E-03
			87.00		22.060E-03
			90.00		21.173E-03
			93.00		19.865E-03
			96.00		18.141E-03
			99.00		16.501E-03
			102.00		14.948E-03
			105.00		13.966E-03
			108.00		13.660E-03
			111.00		12.169E-03
			114.00		11.549E-03
			117.00		10.603E-03
			120.00		10.298E-03
			123.00		9.8907E-03
			126.00		8.7773E-03
		END_DATA
	END_SCAN  11
	BEGIN_SCAN  12
		TASK_NAME=MODE_INTERVAL
		PROGRAM=BeamAdjust 1.2
		MEAS_DATE=07-Oct-2010 14:02:52
		LINAC=A4
		MODALITY=X
		INPLANE_AXIS_DIR=TARGET_GUN
		CROSSPLANE_AXIS_DIR=LEFT_RIGHT
		DEPTH_AXIS_DIR=UP_DOWN
		ENERGY=6.00
		SSD=950.00
		WEDGE=None
		FIELD_INPLANE=100.00
		FIELD_CROSSPLANE=100.00
		FIELD_TYPE=RECTANGULAR
		GANTRY=0.00
		GANTRY_UPRIGHT_POSITION=0
		GANTRY_ROTATION=CW
		COLL_ANGLE=90.00
		COLL_OFFSET_INPLANE=0.00
		COLL_OFFSET_CROSSPLANE=0.00
		SCAN_DEVICE=STARCHECK
		ELECTROMETER=2D_ARRAY_INTERFACE
		DETECTOR=STARCHECK
		SCAN_CURVETYPE=INPLANE_PROFILE
		SCAN_DEPTH=0.00
		SCAN_OFFAXIS_CROSSPLANE=50.00
		SCAN_ANGLE=0.00
		SCAN_DIAGONAL=NOT_DIAGONAL
		MEAS_PRESET=TIME_PRESET
		MEAS_TIME=10.000
		MEAS_UNIT=GY
		PRESSURE=1013.25
		TEMPERATURE=20.00
		NORM_TEMPERATURE=20.00
		CORRECTION_FACTOR=1.0000
		CORRECTIONS=AIR_DENSITY_CORR;
		BEGIN_DATA
			-30.00		75.173E-03
			-15.00		81.077E-03
			15.00		82.181E-03
			30.00		78.792E-03
		END_DATA
	END_SCAN  12
	BEGIN_SCAN  13
		TASK_NAME=MODE_INTERVAL
		PROGRAM=BeamAdjust 1.2
		MEAS_DATE=07-Oct-2010 14:02:52
		LINAC=A4
		MODALITY=X
		INPLANE_AXIS_DIR=TARGET_GUN
		CROSSPLANE_AXIS_DIR=LEFT_RIGHT
		DEPTH_AXIS_DIR=UP_DOWN
		ENERGY=6.00
		SSD=950.00
		WEDGE=None
		FIELD_INPLANE=100.00
		FIELD_CROSSPLANE=100.00
		FIELD_TYPE=RECTANGULAR
		GANTRY=0.00
		GANTRY_UPRIGHT_POSITION=0
		GANTRY_ROTATION=CW
		COLL_ANGLE=90.00
		COLL_OFFSET_INPLANE=0.00
		COLL_OFFSET_CROSSPLANE=0.00
		SCAN_DEVICE=STARCHECK
		ELECTROMETER=2D_ARRAY_INTERFACE
		DETECTOR=STARCHECK
		SCAN_CURVETYPE=INPLANE_PROFILE
		SCAN_DEPTH=0.00
		SCAN_OFFAXIS_CROSSPLANE=100.00
		SCAN_ANGLE=0.00
		SCAN_DIAGONAL=NOT_DIAGONAL
		MEAS_PRESET=TIME_PRESET
		MEAS_TIME=10.000
		MEAS_UNIT=GY
		PRESSURE=1013.25
		TEMPERATURE=20.00
		NORM_TEMPERATURE=20.00
		CORRECTION_FACTOR=1.0000
		CORRECTIONS=AIR_DENSITY_CORR;
		BEGIN_DATA
			-60.00		7.2691E-03
			-30.00		9.3789E-03
			30.00		9.3908E-03
			60.00		6.6160E-03
		END_DATA
	END_SCAN  13
	BEGIN_SCAN  14
		TASK_NAME=MODE_INTERVAL
		PROGRAM=BeamAdjust 1.2
		MEAS_DATE=07-Oct-2010 14:02:52
		LINAC=A4
		MODALITY=X
		INPLANE_AXIS_DIR=TARGET_GUN
		CROSSPLANE_AXIS_DIR=LEFT_RIGHT
		DEPTH_AXIS_DIR=UP_DOWN
		ENERGY=6.00
		SSD=950.00
		WEDGE=None
		FIELD_INPLANE=100.00
		FIELD_CROSSPLANE=100.00
		FIELD_TYPE=RECTANGULAR
		GANTRY=0.00
		GANTRY_UPRIGHT_POSITION=0
		GANTRY_ROTATION=CW
		COLL_ANGLE=90.00
		COLL_OFFSET_INPLANE=0.00
		COLL_OFFSET_CROSSPLANE=0.00
		SCAN_DEVICE=STARCHECK
		ELECTROMETER=2D_ARRAY_INTERFACE
		DETECTOR=STARCHECK
		SCAN_CURVETYPE=INPLANE_PROFILE
		SCAN_DEPTH=0.00
		SCAN_OFFAXIS_CROSSPLANE=130.00
		SCAN_ANGLE=0.00
		SCAN_DIAGONAL=NOT_DIAGONAL
		MEAS_PRESET=TIME_PRESET
		MEAS_TIME=10.000
		MEAS_UNIT=GY
		PRESSURE=1013.25
		TEMPERATURE=20.00
		NORM_TEMPERATURE=20.00
		CORRECTION_FACTOR=1.0000
		CORRECTIONS=AIR_DENSITY_CORR;
		BEGIN_DATA
			-130.00		1.7998E-03
			-125.00		2.4335E-03
			-120.00		2.2157E-03
			-115.00		2.3654E-03
			-110.00		2.3454E-03
			-105.00		2.8057E-03
			-100.00		2.9406E-03
			-95.00		2.6497E-03
			-90.00		2.6243E-03
			-85.00		3.7311E-03
			-80.00		3.4365E-03
			-75.00		3.9957E-03
			-70.00		3.7303E-03
			-65.00		3.5053E-03
			-60.00		4.3663E-03
			-55.00		4.0092E-03
			-50.00		3.9991E-03
			-45.00		4.5187E-03
			-40.00		4.7221E-03
			-35.00		4.8898E-03
			-30.00		5.1390E-03
			-25.00		4.8125E-03
			-20.00		4.8522E-03
			-15.00		4.7597E-03
			-10.00		4.4348E-03
			-5.00		6.0878E-03
			0.00		5.8891E-03
			5.00		5.3148E-03
			10.00		5.4435E-03
			15.00		4.8860E-03
			20.00		5.1811E-03
			25.00		4.9735E-03
			30.00		4.4074E-03
			35.00		4.7312E-03
			40.00		5.0943E-03
			45.00		4.7434E-03
			50.00		4.5375E-03
			55.00		4.8197E-03
			60.00		4.0956E-03
			65.00		4.2725E-03
			70.00		3.7784E-03
			75.00		3.8756E-03
			80.00		3.5727E-03
			85.00		3.4719E-03
			90.00		3.0909E-03
			95.00		3.0787E-03
			100.00		3.4175E-03
			105.00		2.4914E-03
			110.00		2.1920E-03
			115.00		2.2835E-03
			120.00		2.4203E-03
			125.00		1.9836E-03
			130.00		2.0209E-03
		END_DATA
	END_SCAN  14
	BEGIN_SCAN  15
		TASK_NAME=MODE_INTERVAL
		PROGRAM=BeamAdjust 1.2
		MEAS_DATE=07-Oct-2010 14:02:52
		LINAC=A4
		MODALITY=X
		INPLANE_AXIS_DIR=TARGET_GUN
		CROSSPLANE_AXIS_DIR=LEFT_RIGHT
		DEPTH_AXIS_DIR=UP_DOWN
		ENERGY=6.00
		SSD=950.00
		WEDGE=None
		FIELD_INPLANE=100.00
		FIELD_CROSSPLANE=100.00
		FIELD_TYPE=RECTANGULAR
		GANTRY=0.00
		GANTRY_UPRIGHT_POSITION=0
		GANTRY_ROTATION=CW
		COLL_ANGLE=90.00
		COLL_OFFSET_INPLANE=0.00
		COLL_OFFSET_CROSSPLANE=0.00
		SCAN_DEVICE=STARCHECK
		ELECTROMETER=2D_ARRAY_INTERFACE
		DETECTOR=STARCHECK
		SCAN_CURVETYPE=INPLANE_PROFILE
		SCAN_DEPTH=0.00
		SCAN_OFFAXIS_CROSSPLANE=0.00
		SCAN_ANGLE=0.00
		SCAN_DIAGONAL=FIRST_DIAGONAL
		MEAS_PRESET=TIME_PRESET
		MEAS_TIME=10.000
		MEAS_UNIT=GY
		PRESSURE=1013.25
		TEMPERATURE=20.00
		NORM_TEMPERATURE=20.00
		CORRECTION_FACTOR=1.0000
		CORRECTIONS=AIR_DENSITY_CORR;
		BEGIN_DATA
			-172.40		2.7655E-03
			-169.40		3.9417E-03
			-166.40		4.3410E-03
			-163.40		4.0018E-03
			-160.40		4.3846E-03
			-157.40		4.3284E-03
			-154.40		4.2154E-03
			-151.40		4.5913E-03
			-148.40		5.2163E-03
			-145.40		5.5352E-03
			-142.40		6.2414E-03
			-139.40		6.6933E-03
			-136.40		6.8629E-03
			-133.40		7.5540E-03
			-130.40		7.9718E-03
			-127.40		8.9964E-03
			-124.40		9.0508E-03
			-121.40		10.076E-03
			-118.40		10.812E-03
			-115.40		11.570E-03
			-112.40		12.729E-03
			-109.40		14.282E-03
			-106.40		15.446E-03
			-103.40		15.958E-03
			-100.40		17.771E-03
			-97.40		20.402E-03
			-94.40		22.709E-03
			-91.40		25.498E-03
			-88.40		28.950E-03
			-85.40		33.337E-03
			-82.40		40.085E-03
			-79.40		53.128E-03
			-76.40		88.542E-03
			-73.40		205.81E-03
			-70.40		376.91E-03
			-67.40		516.95E-03
			-64.40		591.66E-03
			-61.40		620.69E-03
			-58.40		634.15E-03
			-55.40		643.01E-03
			-52.40		648.46E-03
			-49.40		653.05E-03
			-46.40		654.66E-03
			-43.40		657.02E-03
			-40.40		659.50E-03
			-37.40		664.06E-03
			-34.40		662.87E-03
			-31.40		664.14E-03
			-28.40		662.64E-03
			-25.40		665.46E-03
			-22.40		666.72E-03
			-19.40		668.03E-03
			-16.40		670.61E-03
			-13.40		671.62E-03
			0.00		669.15E-03
			13.40		671.07E-03
			16.40		667.32E-03
			19.40		666.81E-03
			22.40		665.67E-03
			25.40		664.66E-03
			28.40		663.47E-03
			31.40		660.46E-03
			34.40		656.97E-03
			37.40		658.77E-03
			40.40		655.22E-03
			43.40		651.81E-03
			46.40		648.47E-03
			49.40		639.87E-03
			52.40		630.51E-03
			55.40		608.57E-03
			58.40		566.56E-03
			61.40		455.54E-03
			64.40		268.98E-03
			67.40		111.86E-03
			70.40		58.063E-03
			73.40		42.084E-03
			76.40		33.879E-03
			79.40		29.128E-03
			82.40		25.871E-03
			85.40		23.161E-03
			88.40		21.347E-03
			91.40		18.919E-03
			94.40		17.172E-03
			97.40		15.450E-03
			100.40		13.847E-03
			103.40		13.907E-03
			106.40		11.736E-03
			109.40		10.969E-03
			112.40		9.6621E-03
			115.40		9.6016E-03
			118.40		8.4982E-03
			121.40		8.0057E-03
			124.40		7.6034E-03
			127.40		6.9772E-03
			130.40		6.8468E-03
			133.40		6.0922E-03
			136.40		4.6510E-03
			139.40		4.7429E-03
			142.40		4.6395E-03
			145.40		5.1294E-03
			148.40		4.7731E-03
			151.40		3.9646E-03
			154.40		4.0181E-03
			157.40		3.4034E-03
			160.40		2.8435E-03
			163.40		2.9475E-03
			166.40		2.5806E-03
			169.40		2.6831E-03
			172.40		2.8235E-03
		END_DATA
	END_SCAN  15
	BEGIN_SCAN  16
		TASK_NAME=MODE_INTERVAL
		PROGRAM=BeamAdjust 1.2
		MEAS_DATE=07-Oct-2010 14:02:52
		LINAC=A4
		MODALITY=X
		INPLANE_AXIS_DIR=GUN_TARGET
		CROSSPLANE_AXIS_DIR=LEFT_RIGHT
		DEPTH_AXIS_DIR=UP_DOWN
		ENERGY=6.00
		SSD=950.00
		WEDGE=None
		FIELD_INPLANE=100.00
		FIELD_CROSSPLANE=100.00
		FIELD_TYPE=RECTANGULAR
		GANTRY=0.00
		GANTRY_UPRIGHT_POSITION=0
		GANTRY_ROTATION=CW
		COLL_ANGLE=90.00
		COLL_OFFSET_INPLANE=0.00
		COLL_OFFSET_CROSSPLANE=0.00
		SCAN_DEVICE=STARCHECK
		ELECTROMETER=2D_ARRAY_INTERFACE
		DETECTOR=STARCHECK
		SCAN_CURVETYPE=INPLANE_PROFILE
		SCAN_DEPTH=0.00
		SCAN_OFFAXIS_CROSSPLANE=0.00
		SCAN_ANGLE=0.00
		SCAN_DIAGONAL=SECOND_DIAGONAL
		MEAS_PRESET=TIME_PRESET
		MEAS_TIME=10.000
		MEAS_UNIT=GY
		PRESSURE=1013.25
		TEMPERATURE=20.00
		NORM_TEMPERATURE=20.00
		CORRECTION_FACTOR=1.0000
		CORRECTIONS=AIR_DENSITY_CORR;
		BEGIN_DATA
			-172.40		2.8622E-03
			-169.40		3.0609E-03
			-166.40		2.7624E-03
			-163.40		2.8397E-03
			-160.40		3.5405E-03
			-157.40		3.6821E-03
			-154.40		4.0508E-03
			-151.40		3.9639E-03
			-148.40		4.2555E-03
			-145.40		4.4344E-03
			-142.40		5.0344E-03
			-139.40		5.1983E-03
			-136.40		5.7051E-03
			-133.40		6.2014E-03
			-130.40		6.7185E-03
			-127.40		7.3019E-03
			-124.40		8.0187E-03
			-121.40		8.2713E-03
			-118.40		8.7394E-03
			-115.40		9.1562E-03
			-112.40		9.7068E-03
			-109.40		10.882E-03
			-106.40		11.929E-03
			-103.40		13.151E-03
			-100.40		14.559E-03
			-97.40		15.609E-03
			-94.40		17.315E-03
			-91.40		18.904E-03
			-88.40		20.294E-03
			-85.40		22.623E-03
			-82.40		25.636E-03
			-79.40		29.757E-03
			-76.40		34.778E-03
			-73.40		44.482E-03
			-70.40		63.389E-03
			-67.40		129.04E-03
			-64.40		288.29E-03
			-61.40		454.33E-03
			-58.40		570.66E-03
			-55.40		615.16E-03
			-52.40		637.49E-03
			-49.40		646.73E-03
			-46.40		652.39E-03
			-43.40		657.10E-03
			-40.40		659.68E-03
			-37.40		663.45E-03
			-34.40		663.93E-03
			-31.40		665.16E-03
			-28.40		667.67E-03
			-25.40		666.94E-03
			-22.40		665.31E-03
			-19.40		668.31E-03
			-16.40		669.07E-03
			-13.40		672.56E-03
			0.00		669.15E-03
			13.40		673.27E-03
			16.40		670.59E-03
			19.40		667.09E-03
			22.40		663.58E-03
			25.40		663.14E-03
			28.40		662.44E-03
			31.40		661.06E-03
			34.40		658.60E-03
			37.40		658.03E-03
			40.40		657.08E-03
			43.40		654.81E-03
			46.40		653.55E-03
			49.40		650.07E-03
			52.40		642.55E-03
			55.40		635.12E-03
			58.40		626.66E-03
			61.40		603.18E-03
			64.40		544.49E-03
			67.40		427.13E-03
			70.40		269.52E-03
			73.40		130.29E-03
			76.40		66.576E-03
			79.40		45.839E-03
			82.40		36.923E-03
			85.40		31.437E-03
			88.40		27.820E-03
			91.40		24.728E-03
			94.40		22.395E-03
			97.40		20.208E-03
			100.40		17.497E-03
			103.40		15.743E-03
			106.40		15.317E-03
			109.40		13.774E-03
			112.40		12.198E-03
			115.40		11.182E-03
			118.40		10.525E-03
			121.40		9.1904E-03
			124.40		8.3742E-03
			127.40		8.0221E-03
			130.40		8.2371E-03
			133.40		7.3715E-03
			136.40		7.3183E-03
			139.40		6.7614E-03
			142.40		5.9821E-03
			145.40		5.5829E-03
			148.40		5.0215E-03
			151.40		4.2275E-03
			154.40		4.3157E-03
			157.40		4.5924E-03
			160.40		4.3547E-03
			163.40		4.2969E-03
			166.40		4.1616E-03
			169.40		3.2501E-03
			172.40		2.4506E-03
		END_DATA
	END_SCAN  16
END_SCAN_DATA
