BEGIN_SCAN_DATA
	FORMAT=CC-Export V1.9                  
	FILE_CREATION_DATE=07-Oct-2010 14:03:27
	LAST_MODIFIED=07-Oct-2010 14:03:27
	BEGIN_SCAN  1
		TASK_NAME=MODE_INTERVAL
		PROGRAM=BeamAdjust 1.2
		MEAS_DATE=07-Oct-2010 14:03:27
		LINAC=A4
		MODALITY=X
		INPLANE_AXIS_DIR=TARGET_GUN
		CROSSPLANE_AXIS_DIR=LEFT_RIGHT
		DEPTH_AXIS_DIR=UP_DOWN
		ENERGY=6.00
		SSD=950.00
		WEDGE=None
		FIELD_INPLANE=100.00
		FIELD_CROSSPLANE=100.00
		FIELD_TYPE=RECTANGULAR
		GANTRY=0.00
		GANTRY_UPRIGHT_POSITION=0
		GANTRY_ROTATION=CW
		COLL_ANGLE=90.00
		COLL_OFFSET_INPLANE=0.00
		COLL_OFFSET_CROSSPLANE=0.00
		SCAN_DEVICE=STARCHECK
		ELECTROMETER=2D_ARRAY_INTERFACE
		DETECTOR=STARCHECK
		SCAN_CURVETYPE=CROSSPLANE_PROFILE
		SCAN_DEPTH=0.00
		SCAN_OFFAXIS_INPLANE=-130.00
		SCAN_ANGLE=0.00
		SCAN_DIAGONAL=NOT_DIAGONAL
		MEAS_PRESET=TIME_PRESET
		MEAS_TIME=10.000
		MEAS_UNIT=GY
		PRESSURE=1013.25
		TEMPERATURE=20.00
		NORM_TEMPERATURE=20.00
		CORRECTION_FACTOR=1.0000
		CORRECTIONS=AIR_DENSITY_CORR;
		BEGIN_DATA
			-130.00		2.6441E-03
			-80.00		4.2523E-03
			-40.00		7.8184E-03
			40.00		6.1231E-03
			80.00		3.7534E-03
			130.00		1.8402E-03
		END_DATA
	END_SCAN  1
	BEGIN_SCAN  2
		TASK_NAME=MODE_INTERVAL
		PROGRAM=BeamAdjust 1.2
		MEAS_DATE=07-Oct-2010 14:03:27
		LINAC=A4
		MODALITY=X
		INPLANE_AXIS_DIR=TARGET_GUN
		CROSSPLANE_AXIS_DIR=LEFT_RIGHT
		DEPTH_AXIS_DIR=UP_DOWN
		ENERGY=6.00
		SSD=950.00
		WEDGE=None
		FIELD_INPLANE=100.00
		FIELD_CROSSPLANE=100.00
		FIELD_TYPE=RECTANGULAR
		GANTRY=0.00
		GANTRY_UPRIGHT_POSITION=0
		GANTRY_ROTATION=CW
		COLL_ANGLE=90.00
		COLL_OFFSET_INPLANE=0.00
		COLL_OFFSET_CROSSPLANE=0.00
		SCAN_DEVICE=STARCHECK
		ELECTROMETER=2D_ARRAY_INTERFACE
		DETECTOR=STARCHECK
		SCAN_CURVETYPE=CROSSPLANE_PROFILE
		SCAN_DEPTH=0.00
		SCAN_OFFAXIS_INPLANE=-100.00
		SCAN_ANGLE=0.00
		SCAN_DIAGONAL=NOT_DIAGONAL
		MEAS_PRESET=TIME_PRESET
		MEAS_TIME=10.000
		MEAS_UNIT=GY
		PRESSURE=1013.25
		TEMPERATURE=20.00
		NORM_TEMPERATURE=20.00
		CORRECTION_FACTOR=1.0000
		CORRECTIONS=AIR_DENSITY_CORR;
		BEGIN_DATA
			-60.00		11.443E-03
			-30.00		14.748E-03
			30.00		14.252E-03
			60.00		8.9560E-03
		END_DATA
	END_SCAN  2
	BEGIN_SCAN  3
		TASK_NAME=MODE_INTERVAL
		PROGRAM=BeamAdjust 1.2
		MEAS_DATE=07-Oct-2010 14:03:27
		LINAC=A4
		MODALITY=X
		INPLANE_AXIS_DIR=TARGET_GUN
		CROSSPLANE_AXIS_DIR=LEFT_RIGHT
		DEPTH_AXIS_DIR=UP_DOWN
		ENERGY=6.00
		SSD=950.00
		WEDGE=None
		FIELD_INPLANE=100.00
		FIELD_CROSSPLANE=100.00
		FIELD_TYPE=RECTANGULAR
		GANTRY=0.00
		GANTRY_UPRIGHT_POSITION=0
		GANTRY_ROTATION=CW
		COLL_ANGLE=90.00
		COLL_OFFSET_INPLANE=0.00
		COLL_OFFSET_CROSSPLANE=0.00
		SCAN_DEVICE=STARCHECK
		ELECTROMETER=2D_ARRAY_INTERFACE
		DETECTOR=STARCHECK
		SCAN_CURVETYPE=CROSSPLANE_PROFILE
		SCAN_DEPTH=0.00
		SCAN_OFFAXIS_INPLANE=-50.00
		SCAN_ANGLE=0.00
		SCAN_DIAGONAL=NOT_DIAGONAL
		MEAS_PRESET=TIME_PRESET
		MEAS_TIME=10.000
		MEAS_UNIT=GY
		PRESSURE=1013.25
		TEMPERATURE=20.00
		NORM_TEMPERATURE=20.00
		CORRECTION_FACTOR=1.0000
		CORRECTIONS=AIR_DENSITY_CORR;
		BEGIN_DATA
			-30.00		383.44E-03
			-15.00		380.15E-03
			15.00		389.42E-03
			30.00		376.77E-03
		END_DATA
	END_SCAN  3
	BEGIN_SCAN  4
		TASK_NAME=MODE_INTERVAL
		PROGRAM=BeamAdjust 1.2
		MEAS_DATE=07-Oct-2010 14:03:27
		LINAC=A4
		MODALITY=X
		INPLANE_AXIS_DIR=TARGET_GUN
		CROSSPLANE_AXIS_DIR=LEFT_RIGHT
		DEPTH_AXIS_DIR=UP_DOWN
		ENERGY=6.00
		SSD=950.00
		WEDGE=None
		FIELD_INPLANE=100.00
		FIELD_CROSSPLANE=100.00
		FIELD_TYPE=RECTANGULAR
		GANTRY=0.00
		GANTRY_UPRIGHT_POSITION=0
		GANTRY_ROTATION=CW
		COLL_ANGLE=90.00
		COLL_OFFSET_INPLANE=0.00
		COLL_OFFSET_CROSSPLANE=0.00
		SCAN_DEVICE=STARCHECK
		ELECTROMETER=2D_ARRAY_INTERFACE
		DETECTOR=STARCHECK
		SCAN_CURVETYPE=CROSSPLANE_PROFILE
		SCAN_DEPTH=0.00
		SCAN_OFFAXIS_INPLANE=0.00
		SCAN_ANGLE=0.00
		SCAN_DIAGONAL=NOT_DIAGONAL
		MEAS_PRESET=TIME_PRESET
		MEAS_TIME=10.000
		MEAS_UNIT=GY
		PRESSURE=1013.25
		TEMPERATURE=20.00
		NORM_TEMPERATURE=20.00
		CORRECTION_FACTOR=1.0000
		CORRECTIONS=AIR_DENSITY_CORR;
		BEGIN_DATA
			-126.00		7.0334E-03
			-123.00		9.0586E-03
			-120.00		9.0506E-03
			-117.00		9.9654E-03
			-114.00		10.070E-03
			-111.00		10.703E-03
			-108.00		11.892E-03
			-105.00		12.770E-03
			-102.00		13.433E-03
			-99.00		14.657E-03
			-96.00		16.358E-03
			-93.00		17.870E-03
			-90.00		19.085E-03
			-87.00		20.852E-03
			-84.00		24.061E-03
			-81.00		26.630E-03
			-78.00		28.865E-03
			-75.00		32.729E-03
			-72.00		37.019E-03
			-69.00		43.120E-03
			-66.00		51.651E-03
			-63.00		64.124E-03
			-60.00		92.025E-03
			-57.00		183.92E-03
			-54.00		472.76E-03
			-51.00		603.00E-03
			-48.00		634.11E-03
			-45.00		643.39E-03
			-42.00		649.38E-03
			-39.00		656.35E-03
			-36.00		659.74E-03
			-33.00		658.81E-03
			-30.00		659.55E-03
			-27.00		661.69E-03
			-24.00		664.02E-03
			-21.00		664.87E-03
			-18.00		670.42E-03
			-15.00		668.94E-03
			-12.00		666.71E-03
			-9.00		669.04E-03
			-6.00		668.61E-03
			0.00		668.73E-03
			6.00		671.66E-03
			9.00		669.77E-03
			12.00		666.29E-03
			15.00		665.62E-03
			18.00		665.40E-03
			21.00		663.40E-03
			24.00		659.89E-03
			27.00		662.63E-03
			30.00		659.01E-03
			33.00		654.08E-03
			36.00		645.88E-03
			39.00		628.73E-03
			42.00		579.45E-03
			45.00		356.68E-03
			48.00		129.18E-03
			51.00		77.562E-03
			54.00		57.856E-03
			57.00		47.387E-03
			60.00		40.303E-03
			63.00		35.658E-03
			66.00		31.042E-03
			69.00		27.370E-03
			72.00		25.027E-03
			75.00		22.772E-03
			78.00		20.431E-03
			81.00		18.698E-03
			84.00		17.138E-03
			87.00		15.760E-03
			90.00		14.858E-03
			93.00		13.930E-03
			96.00		11.952E-03
			99.00		11.571E-03
			102.00		11.005E-03
			105.00		9.7767E-03
			108.00		9.6175E-03
			111.00		8.3090E-03
			114.00		8.1802E-03
			117.00		7.2199E-03
			120.00		6.5782E-03
			123.00		6.6787E-03
			126.00		6.8400E-03
		END_DATA
	END_SCAN  4
	BEGIN_SCAN  5
		TASK_NAME=MODE_INTERVAL
		PROGRAM=BeamAdjust 1.2
		MEAS_DATE=07-Oct-2010 14:03:27
		LINAC=A4
		MODALITY=X
		INPLANE_AXIS_DIR=TARGET_GUN
		CROSSPLANE_AXIS_DIR=LEFT_RIGHT
		DEPTH_AXIS_DIR=UP_DOWN
		ENERGY=6.00
		SSD=950.00
		WEDGE=None
		FIELD_INPLANE=100.00
		FIELD_CROSSPLANE=100.00
		FIELD_TYPE=RECTANGULAR
		GANTRY=0.00
		GANTRY_UPRIGHT_POSITION=0
		GANTRY_ROTATION=CW
		COLL_ANGLE=90.00
		COLL_OFFSET_INPLANE=0.00
		COLL_OFFSET_CROSSPLANE=0.00
		SCAN_DEVICE=STARCHECK
		ELECTROMETER=2D_ARRAY_INTERFACE
		DETECTOR=STARCHECK
		SCAN_CURVETYPE=CROSSPLANE_PROFILE
		SCAN_DEPTH=0.00
		SCAN_OFFAXIS_INPLANE=50.00
		SCAN_ANGLE=0.00
		SCAN_DIAGONAL=NOT_DIAGONAL
		MEAS_PRESET=TIME_PRESET
		MEAS_TIME=10.000
		MEAS_UNIT=GY
		PRESSURE=1013.25
		TEMPERATURE=20.00
		NORM_TEMPERATURE=20.00
		CORRECTION_FACTOR=1.0000
		CORRECTIONS=AIR_DENSITY_CORR;
		BEGIN_DATA
			-30.00		266.89E-03
			-15.00		286.06E-03
			15.00		264.72E-03
			30.00		244.91E-03
		END_DATA
	END_SCAN  5
	BEGIN_SCAN  6
		TASK_NAME=MODE_INTERVAL
		PROGRAM=BeamAdjust 1.2
		MEAS_DATE=07-Oct-2010 14:03:27
		LINAC=A4
		MODALITY=X
		INPLANE_AXIS_DIR=TARGET_GUN
		CROSSPLANE_AXIS_DIR=LEFT_RIGHT
		DEPTH_AXIS_DIR=UP_DOWN
		ENERGY=6.00
		SSD=950.00
		WEDGE=None
		FIELD_INPLANE=100.00
		FIELD_CROSSPLANE=100.00
		FIELD_TYPE=RECTANGULAR
		GANTRY=0.00
		GANTRY_UPRIGHT_POSITION=0
		GANTRY_ROTATION=CW
		COLL_ANGLE=90.00
		COLL_OFFSET_INPLANE=0.00
		COLL_OFFSET_CROSSPLANE=0.00
		SCAN_DEVICE=STARCHECK
		ELECTROMETER=2D_ARRAY_INTERFACE
		DETECTOR=STARCHECK
		SCAN_CURVETYPE=CROSSPLANE_PROFILE
		SCAN_DEPTH=0.00
		SCAN_OFFAXIS_INPLANE=100.00
		SCAN_ANGLE=0.00
		SCAN_DIAGONAL=NOT_DIAGONAL
		MEAS_PRESET=TIME_PRESET
		MEAS_TIME=10.000
		MEAS_UNIT=GY
		PRESSURE=1013.25
		TEMPERATURE=20.00
		NORM_TEMPERATURE=20.00
		CORRECTION_FACTOR=1.0000
		CORRECTIONS=AIR_DENSITY_CORR;
		BEGIN_DATA
			-60.00		11.180E-03
			-30.00		15.411E-03
			30.00		14.160E-03
			60.00		8.2912E-03
		END_DATA
	END_SCAN  6
	BEGIN_SCAN  7
		TASK_NAME=MODE_INTERVAL
		PROGRAM=BeamAdjust 1.2
		MEAS_DATE=07-Oct-2010 14:03:27
		LINAC=A4
		MODALITY=X
		INPLANE_AXIS_DIR=TARGET_GUN
		CROSSPLANE_AXIS_DIR=LEFT_RIGHT
		DEPTH_AXIS_DIR=UP_DOWN
		ENERGY=6.00
		SSD=950.00
		WEDGE=None
		FIELD_INPLANE=100.00
		FIELD_CROSSPLANE=100.00
		FIELD_TYPE=RECTANGULAR
		GANTRY=0.00
		GANTRY_UPRIGHT_POSITION=0
		GANTRY_ROTATION=CW
		COLL_ANGLE=90.00
		COLL_OFFSET_INPLANE=0.00
		COLL_OFFSET_CROSSPLANE=0.00
		SCAN_DEVICE=STARCHECK
		ELECTROMETER=2D_ARRAY_INTERFACE
		DETECTOR=STARCHECK
		SCAN_CURVETYPE=CROSSPLANE_PROFILE
		SCAN_DEPTH=0.00
		SCAN_OFFAXIS_INPLANE=130.00
		SCAN_ANGLE=0.00
		SCAN_DIAGONAL=NOT_DIAGONAL
		MEAS_PRESET=TIME_PRESET
		MEAS_TIME=10.000
		MEAS_UNIT=GY
		PRESSURE=1013.25
		TEMPERATURE=20.00
		NORM_TEMPERATURE=20.00
		CORRECTION_FACTOR=1.0000
		CORRECTIONS=AIR_DENSITY_CORR;
		BEGIN_DATA
			-130.00		2.6553E-03
			-80.00		4.3575E-03
			-40.00		7.6608E-03
			40.00		6.3724E-03
			80.00		4.5163E-03
			130.00		2.2279E-03
		END_DATA
	END_SCAN  7
	BEGIN_SCAN  8
		TASK_NAME=MODE_INTERVAL
		PROGRAM=BeamAdjust 1.2
		MEAS_DATE=07-Oct-2010 14:03:27
		LINAC=A4
		MODALITY=X
		INPLANE_AXIS_DIR=TARGET_GUN
		CROSSPLANE_AXIS_DIR=LEFT_RIGHT
		DEPTH_AXIS_DIR=UP_DOWN
		ENERGY=6.00
		SSD=950.00
		WEDGE=None
		FIELD_INPLANE=100.00
		FIELD_CROSSPLANE=100.00
		FIELD_TYPE=RECTANGULAR
		GANTRY=0.00
		GANTRY_UPRIGHT_POSITION=0
		GANTRY_ROTATION=CW
		COLL_ANGLE=90.00
		COLL_OFFSET_INPLANE=0.00
		COLL_OFFSET_CROSSPLANE=0.00
		SCAN_DEVICE=STARCHECK
		ELECTROMETER=2D_ARRAY_INTERFACE
		DETECTOR=STARCHECK
		SCAN_CURVETYPE=INPLANE_PROFILE
		SCAN_DEPTH=0.00
		SCAN_OFFAXIS_CROSSPLANE=-130.00
		SCAN_ANGLE=0.00
		SCAN_DIAGONAL=NOT_DIAGONAL
		MEAS_PRESET=TIME_PRESET
		MEAS_TIME=10.000
		MEAS_UNIT=GY
		PRESSURE=1013.25
		TEMPERATURE=20.00
		NORM_TEMPERATURE=20.00
		CORRECTION_FACTOR=1.0000
		CORRECTIONS=AIR_DENSITY_CORR;
		BEGIN_DATA
			-130.00		2.6441E-03
			-125.00		3.1247E-03
			-120.00		3.6225E-03
			-115.00		3.5654E-03
			-110.00		3.7000E-03
			-105.00		4.1174E-03
			-100.00		4.3588E-03
			-95.00		4.7853E-03
			-90.00		5.0241E-03
			-85.00		4.7564E-03
			-80.00		5.5515E-03
			-75.00		5.3314E-03
			-70.00		5.0468E-03
			-65.00		5.6515E-03
			-60.00		5.6756E-03
			-55.00		6.1306E-03
			-50.00		4.7858E-03
			-45.00		5.3469E-03
			-40.00		5.2210E-03
			-35.00		6.1288E-03
			-30.00		5.8687E-03
			-25.00		5.6696E-03
			-20.00		6.0009E-03
			-15.00		5.6487E-03
			-10.00		6.5033E-03
			-5.00		7.0937E-03
			0.00		7.0120E-03
			5.00		7.0776E-03
			10.00		6.3382E-03
			15.00		6.0761E-03
			20.00		6.3939E-03
			25.00		6.0527E-03
			30.00		6.3993E-03
			35.00		6.0515E-03
			40.00		5.7066E-03
			45.00		5.0826E-03
			50.00		5.0875E-03
			55.00		4.9714E-03
			60.00		5.4964E-03
			65.00		4.6263E-03
			70.00		4.7576E-03
			75.00		4.0937E-03
			80.00		3.8880E-03
			85.00		4.1133E-03
			90.00		3.6837E-03
			95.00		3.7935E-03
			100.00		3.7704E-03
			105.00		3.0810E-03
			110.00		2.9437E-03
			115.00		2.5327E-03
			120.00		2.4933E-03
			125.00		2.8933E-03
			130.00		2.6553E-03
		END_DATA
	END_SCAN  8
	BEGIN_SCAN  9
		TASK_NAME=MODE_INTERVAL
		PROGRAM=BeamAdjust 1.2
		MEAS_DATE=07-Oct-2010 14:03:27
		LINAC=A4
		MODALITY=X
		INPLANE_AXIS_DIR=TARGET_GUN
		CROSSPLANE_AXIS_DIR=LEFT_RIGHT
		DEPTH_AXIS_DIR=UP_DOWN
		ENERGY=6.00
		SSD=950.00
		WEDGE=None
		FIELD_INPLANE=100.00
		FIELD_CROSSPLANE=100.00
		FIELD_TYPE=RECTANGULAR
		GANTRY=0.00
		GANTRY_UPRIGHT_POSITION=0
		GANTRY_ROTATION=CW
		COLL_ANGLE=90.00
		COLL_OFFSET_INPLANE=0.00
		COLL_OFFSET_CROSSPLANE=0.00
		SCAN_DEVICE=STARCHECK
		ELECTROMETER=2D_ARRAY_INTERFACE
		DETECTOR=STARCHECK
		SCAN_CURVETYPE=INPLANE_PROFILE
		SCAN_DEPTH=0.00
		SCAN_OFFAXIS_CROSSPLANE=-100.00
		SCAN_ANGLE=0.00
		SCAN_DIAGONAL=NOT_DIAGONAL
		MEAS_PRESET=TIME_PRESET
		MEAS_TIME=10.000
		MEAS_UNIT=GY
		PRESSURE=1013.25
		TEMPERATURE=20.00
		NORM_TEMPERATURE=20.00
		CORRECTION_FACTOR=1.0000
		CORRECTIONS=AIR_DENSITY_CORR;
		BEGIN_DATA
			-60.00		9.7764E-03
			-30.00		11.971E-03
			30.00		11.575E-03
			60.00		8.7964E-03
		END_DATA
	END_SCAN  9
	BEGIN_SCAN  10
		TASK_NAME=MODE_INTERVAL
		PROGRAM=BeamAdjust 1.2
		MEAS_DATE=07-Oct-2010 14:03:27
		LINAC=A4
		MODALITY=X
		INPLANE_AXIS_DIR=TARGET_GUN
		CROSSPLANE_AXIS_DIR=LEFT_RIGHT
		DEPTH_AXIS_DIR=UP_DOWN
		ENERGY=6.00
		SSD=950.00
		WEDGE=None
		FIELD_INPLANE=100.00
		FIELD_CROSSPLANE=100.00
		FIELD_TYPE=RECTANGULAR
		GANTRY=0.00
		GANTRY_UPRIGHT_POSITION=0
		GANTRY_ROTATION=CW
		COLL_ANGLE=90.00
		COLL_OFFSET_INPLANE=0.00
		COLL_OFFSET_CROSSPLANE=0.00
		SCAN_DEVICE=STARCHECK
		ELECTROMETER=2D_ARRAY_INTERFACE
		DETECTOR=STARCHECK
		SCAN_CURVETYPE=INPLANE_PROFILE
		SCAN_DEPTH=0.00
		SCAN_OFFAXIS_CROSSPLANE=-50.00
		SCAN_ANGLE=0.00
		SCAN_DIAGONAL=NOT_DIAGONAL
		MEAS_PRESET=TIME_PRESET
		MEAS_TIME=10.000
		MEAS_UNIT=GY
		PRESSURE=1013.25
		TEMPERATURE=20.00
		NORM_TEMPERATURE=20.00
		CORRECTION_FACTOR=1.0000
		CORRECTIONS=AIR_DENSITY_CORR;
		BEGIN_DATA
			-30.00		630.57E-03
			-15.00		631.82E-03
			15.00		631.71E-03
			30.00		625.50E-03
		END_DATA
	END_SCAN  10
	BEGIN_SCAN  11
		TASK_NAME=MODE_INTERVAL
		PROGRAM=BeamAdjust 1.2
		MEAS_DATE=07-Oct-2010 14:03:27
		LINAC=A4
		MODALITY=X
		INPLANE_AXIS_DIR=TARGET_GUN
		CROSSPLANE_AXIS_DIR=LEFT_RIGHT
		DEPTH_AXIS_DIR=UP_DOWN
		ENERGY=6.00
		SSD=950.00
		WEDGE=None
		FIELD_INPLANE=100.00
		FIELD_CROSSPLANE=100.00
		FIELD_TYPE=RECTANGULAR
		GANTRY=0.00
		GANTRY_UPRIGHT_POSITION=0
		GANTRY_ROTATION=CW
		COLL_ANGLE=90.00
		COLL_OFFSET_INPLANE=0.00
		COLL_OFFSET_CROSSPLANE=0.00
		SCAN_DEVICE=STARCHECK
		ELECTROMETER=2D_ARRAY_INTERFACE
		DETECTOR=STARCHECK
		SCAN_CURVETYPE=INPLANE_PROFILE
		SCAN_DEPTH=0.00
		SCAN_OFFAXIS_CROSSPLANE=0.00
		SCAN_ANGLE=0.00
		SCAN_DIAGONAL=NOT_DIAGONAL
		MEAS_PRESET=TIME_PRESET
		MEAS_TIME=10.000
		MEAS_UNIT=GY
		PRESSURE=1013.25
		TEMPERATURE=20.00
		NORM_TEMPERATURE=20.00
		CORRECTION_FACTOR=1.0000
		CORRECTIONS=AIR_DENSITY_CORR;
		BEGIN_DATA
			-126.00		9.2614E-03
			-123.00		9.4391E-03
			-120.00		10.331E-03
			-117.00		11.538E-03
			-114.00		11.938E-03
			-111.00		12.718E-03
			-108.00		13.546E-03
			-105.00		14.353E-03
			-102.00		16.348E-03
			-99.00		16.960E-03
			-96.00		18.435E-03
			-93.00		20.478E-03
			-90.00		21.932E-03
			-87.00		23.476E-03
			-84.00		25.489E-03
			-81.00		28.319E-03
			-78.00		30.643E-03
			-75.00		33.406E-03
			-72.00		36.717E-03
			-69.00		40.210E-03
			-66.00		45.739E-03
			-63.00		52.218E-03
			-60.00		62.386E-03
			-57.00		81.930E-03
			-54.00		130.91E-03
			-51.00		294.25E-03
			-48.00		550.86E-03
			-45.00		621.89E-03
			-42.00		642.69E-03
			-39.00		652.68E-03
			-36.00		657.86E-03
			-33.00		661.10E-03
			-30.00		664.85E-03
			-27.00		666.38E-03
			-24.00		665.56E-03
			-21.00		664.69E-03
			-18.00		670.94E-03
			-15.00		669.65E-03
			-12.00		671.46E-03
			-9.00		671.41E-03
			-6.00		669.07E-03
			0.00		668.73E-03
			6.00		672.98E-03
			9.00		671.83E-03
			12.00		671.45E-03
			15.00		668.78E-03
			18.00		664.83E-03
			21.00		664.65E-03
			24.00		661.14E-03
			27.00		662.20E-03
			30.00		658.15E-03
			33.00		656.44E-03
			36.00		653.84E-03
			39.00		642.81E-03
			42.00		631.26E-03
			45.00		598.11E-03
			48.00		438.71E-03
			51.00		191.78E-03
			54.00		99.841E-03
			57.00		70.084E-03
			60.00		57.448E-03
			63.00		48.985E-03
			66.00		43.478E-03
			69.00		38.647E-03
			72.00		34.607E-03
			75.00		31.561E-03
			78.00		28.144E-03
			81.00		26.284E-03
			84.00		24.552E-03
			87.00		22.429E-03
			90.00		20.908E-03
			93.00		19.095E-03
			96.00		18.709E-03
			99.00		16.776E-03
			102.00		15.337E-03
			105.00		13.830E-03
			108.00		13.433E-03
			111.00		12.340E-03
			114.00		11.645E-03
			117.00		10.754E-03
			120.00		10.500E-03
			123.00		9.8683E-03
			126.00		8.7773E-03
		END_DATA
	END_SCAN  11
	BEGIN_SCAN  12
		TASK_NAME=MODE_INTERVAL
		PROGRAM=BeamAdjust 1.2
		MEAS_DATE=07-Oct-2010 14:03:27
		LINAC=A4
		MODALITY=X
		INPLANE_AXIS_DIR=TARGET_GUN
		CROSSPLANE_AXIS_DIR=LEFT_RIGHT
		DEPTH_AXIS_DIR=UP_DOWN
		ENERGY=6.00
		SSD=950.00
		WEDGE=None
		FIELD_INPLANE=100.00
		FIELD_CROSSPLANE=100.00
		FIELD_TYPE=RECTANGULAR
		GANTRY=0.00
		GANTRY_UPRIGHT_POSITION=0
		GANTRY_ROTATION=CW
		COLL_ANGLE=90.00
		COLL_OFFSET_INPLANE=0.00
		COLL_OFFSET_CROSSPLANE=0.00
		SCAN_DEVICE=STARCHECK
		ELECTROMETER=2D_ARRAY_INTERFACE
		DETECTOR=STARCHECK
		SCAN_CURVETYPE=INPLANE_PROFILE
		SCAN_DEPTH=0.00
		SCAN_OFFAXIS_CROSSPLANE=50.00
		SCAN_ANGLE=0.00
		SCAN_DIAGONAL=NOT_DIAGONAL
		MEAS_PRESET=TIME_PRESET
		MEAS_TIME=10.000
		MEAS_UNIT=GY
		PRESSURE=1013.25
		TEMPERATURE=20.00
		NORM_TEMPERATURE=20.00
		CORRECTION_FACTOR=1.0000
		CORRECTIONS=AIR_DENSITY_CORR;
		BEGIN_DATA
			-30.00		71.129E-03
			-15.00		76.503E-03
			15.00		77.567E-03
			30.00		73.895E-03
		END_DATA
	END_SCAN  12
	BEGIN_SCAN  13
		TASK_NAME=MODE_INTERVAL
		PROGRAM=BeamAdjust 1.2
		MEAS_DATE=07-Oct-2010 14:03:27
		LINAC=A4
		MODALITY=X
		INPLANE_AXIS_DIR=TARGET_GUN
		CROSSPLANE_AXIS_DIR=LEFT_RIGHT
		DEPTH_AXIS_DIR=UP_DOWN
		ENERGY=6.00
		SSD=950.00
		WEDGE=None
		FIELD_INPLANE=100.00
		FIELD_CROSSPLANE=100.00
		FIELD_TYPE=RECTANGULAR
		GANTRY=0.00
		GANTRY_UPRIGHT_POSITION=0
		GANTRY_ROTATION=CW
		COLL_ANGLE=90.00
		COLL_OFFSET_INPLANE=0.00
		COLL_OFFSET_CROSSPLANE=0.00
		SCAN_DEVICE=STARCHECK
		ELECTROMETER=2D_ARRAY_INTERFACE
		DETECTOR=STARCHECK
		SCAN_CURVETYPE=INPLANE_PROFILE
		SCAN_DEPTH=0.00
		SCAN_OFFAXIS_CROSSPLANE=100.00
		SCAN_ANGLE=0.00
		SCAN_DIAGONAL=NOT_DIAGONAL
		MEAS_PRESET=TIME_PRESET
		MEAS_TIME=10.000
		MEAS_UNIT=GY
		PRESSURE=1013.25
		TEMPERATURE=20.00
		NORM_TEMPERATURE=20.00
		CORRECTION_FACTOR=1.0000
		CORRECTIONS=AIR_DENSITY_CORR;
		BEGIN_DATA
			-60.00		7.3657E-03
			-30.00		9.3003E-03
			30.00		9.2854E-03
			60.00		6.8106E-03
		END_DATA
	END_SCAN  13
	BEGIN_SCAN  14
		TASK_NAME=MODE_INTERVAL
		PROGRAM=BeamAdjust 1.2
		MEAS_DATE=07-Oct-2010 14:03:27
		LINAC=A4
		MODALITY=X
		INPLANE_AXIS_DIR=TARGET_GUN
		CROSSPLANE_AXIS_DIR=LEFT_RIGHT
		DEPTH_AXIS_DIR=UP_DOWN
		ENERGY=6.00
		SSD=950.00
		WEDGE=None
		FIELD_INPLANE=100.00
		FIELD_CROSSPLANE=100.00
		FIELD_TYPE=RECTANGULAR
		GANTRY=0.00
		GANTRY_UPRIGHT_POSITION=0
		GANTRY_ROTATION=CW
		COLL_ANGLE=90.00
		COLL_OFFSET_INPLANE=0.00
		COLL_OFFSET_CROSSPLANE=0.00
		SCAN_DEVICE=STARCHECK
		ELECTROMETER=2D_ARRAY_INTERFACE
		DETECTOR=STARCHECK
		SCAN_CURVETYPE=INPLANE_PROFILE
		SCAN_DEPTH=0.00
		SCAN_OFFAXIS_CROSSPLANE=130.00
		SCAN_ANGLE=0.00
		SCAN_DIAGONAL=NOT_DIAGONAL
		MEAS_PRESET=TIME_PRESET
		MEAS_TIME=10.000
		MEAS_UNIT=GY
		PRESSURE=1013.25
		TEMPERATURE=20.00
		NORM_TEMPERATURE=20.00
		CORRECTION_FACTOR=1.0000
		CORRECTIONS=AIR_DENSITY_CORR;
		BEGIN_DATA
			-130.00		1.8402E-03
			-125.00		2.5107E-03
			-120.00		2.2054E-03
			-115.00		2.4425E-03
			-110.00		2.5584E-03
			-105.00		2.6925E-03
			-100.00		3.0744E-03
			-95.00		2.9750E-03
			-90.00		2.7058E-03
			-85.00		3.6264E-03
			-80.00		3.4439E-03
			-75.00		3.3676E-03
			-70.00		4.1209E-03
			-65.00		3.6189E-03
			-60.00		4.3855E-03
			-55.00		3.9723E-03
			-50.00		3.9769E-03
			-45.00		4.4641E-03
			-40.00		4.6423E-03
			-35.00		4.7123E-03
			-30.00		4.7796E-03
			-25.00		4.4844E-03
			-20.00		4.8655E-03
			-15.00		4.8349E-03
			-10.00		4.1706E-03
			-5.00		5.3804E-03
			0.00		6.1537E-03
			5.00		5.1315E-03
			10.00		5.4966E-03
			15.00		4.9877E-03
			20.00		5.3187E-03
			25.00		5.1262E-03
			30.00		4.6391E-03
			35.00		4.7446E-03
			40.00		5.2444E-03
			45.00		4.5603E-03
			50.00		4.4741E-03
			55.00		4.7902E-03
			60.00		4.3553E-03
			65.00		3.6802E-03
			70.00		4.0361E-03
			75.00		3.8360E-03
			80.00		3.5653E-03
			85.00		3.4939E-03
			90.00		3.1528E-03
			95.00		3.1099E-03
			100.00		3.4249E-03
			105.00		2.3240E-03
			110.00		2.6945E-03
			115.00		2.6312E-03
			120.00		2.7802E-03
			125.00		2.1016E-03
			130.00		2.2279E-03
		END_DATA
	END_SCAN  14
	BEGIN_SCAN  15
		TASK_NAME=MODE_INTERVAL
		PROGRAM=BeamAdjust 1.2
		MEAS_DATE=07-Oct-2010 14:03:27
		LINAC=A4
		MODALITY=X
		INPLANE_AXIS_DIR=TARGET_GUN
		CROSSPLANE_AXIS_DIR=LEFT_RIGHT
		DEPTH_AXIS_DIR=UP_DOWN
		ENERGY=6.00
		SSD=950.00
		WEDGE=None
		FIELD_INPLANE=100.00
		FIELD_CROSSPLANE=100.00
		FIELD_TYPE=RECTANGULAR
		GANTRY=0.00
		GANTRY_UPRIGHT_POSITION=0
		GANTRY_ROTATION=CW
		COLL_ANGLE=90.00
		COLL_OFFSET_INPLANE=0.00
		COLL_OFFSET_CROSSPLANE=0.00
		SCAN_DEVICE=STARCHECK
		ELECTROMETER=2D_ARRAY_INTERFACE
		DETECTOR=STARCHECK
		SCAN_CURVETYPE=INPLANE_PROFILE
		SCAN_DEPTH=0.00
		SCAN_OFFAXIS_CROSSPLANE=0.00
		SCAN_ANGLE=0.00
		SCAN_DIAGONAL=FIRST_DIAGONAL
		MEAS_PRESET=TIME_PRESET
		MEAS_TIME=10.000
		MEAS_UNIT=GY
		PRESSURE=1013.25
		TEMPERATURE=20.00
		NORM_TEMPERATURE=20.00
		CORRECTION_FACTOR=1.0000
		CORRECTIONS=AIR_DENSITY_CORR;
		BEGIN_DATA
			-172.40		3.0997E-03
			-169.40		3.3067E-03
			-166.40		4.6689E-03
			-163.40		3.7868E-03
			-160.40		4.2668E-03
			-157.40		4.4313E-03
			-154.40		4.4472E-03
			-151.40		4.6819E-03
			-148.40		5.2476E-03
			-145.40		5.4279E-03
			-142.40		5.8511E-03
			-139.40		6.4237E-03
			-136.40		6.5263E-03
			-133.40		7.5837E-03
			-130.40		7.9792E-03
			-127.40		8.2932E-03
			-124.40		9.6721E-03
			-121.40		9.9577E-03
			-118.40		10.748E-03
			-115.40		11.957E-03
			-112.40		13.005E-03
			-109.40		14.269E-03
			-106.40		15.384E-03
			-103.40		16.465E-03
			-100.40		17.768E-03
			-97.40		20.530E-03
			-94.40		22.587E-03
			-91.40		25.369E-03
			-88.40		29.173E-03
			-85.40		33.246E-03
			-82.40		40.871E-03
			-79.40		54.036E-03
			-76.40		92.298E-03
			-73.40		212.47E-03
			-70.40		379.60E-03
			-67.40		516.96E-03
			-64.40		591.43E-03
			-61.40		620.75E-03
			-58.40		634.21E-03
			-55.40		642.89E-03
			-52.40		648.15E-03
			-49.40		652.47E-03
			-46.40		654.36E-03
			-43.40		656.39E-03
			-40.40		659.55E-03
			-37.40		663.23E-03
			-34.40		662.52E-03
			-31.40		663.79E-03
			-28.40		662.35E-03
			-25.40		665.39E-03
			-22.40		666.39E-03
			-19.40		667.58E-03
			-16.40		670.15E-03
			-13.40		671.20E-03
			0.00		668.73E-03
			13.40		670.50E-03
			16.40		666.63E-03
			19.40		666.60E-03
			22.40		665.81E-03
			25.40		664.88E-03
			28.40		662.83E-03
			31.40		660.01E-03
			34.40		656.55E-03
			37.40		658.62E-03
			40.40		655.31E-03
			43.40		651.31E-03
			46.40		647.96E-03
			49.40		639.51E-03
			52.40		629.78E-03
			55.40		605.60E-03
			58.40		557.53E-03
			61.40		437.33E-03
			64.40		250.54E-03
			67.40		103.97E-03
			70.40		55.948E-03
			73.40		40.930E-03
			76.40		33.503E-03
			79.40		28.860E-03
			82.40		25.255E-03
			85.40		22.410E-03
			88.40		20.745E-03
			91.40		18.313E-03
			94.40		16.800E-03
			97.40		15.360E-03
			100.40		14.070E-03
			103.40		13.224E-03
			106.40		12.392E-03
			109.40		11.068E-03
			112.40		9.5063E-03
			115.40		9.2772E-03
			118.40		8.2084E-03
			121.40		7.7384E-03
			124.40		7.2532E-03
			127.40		7.0335E-03
			130.40		6.8231E-03
			133.40		5.7353E-03
			136.40		4.8020E-03
			139.40		4.6174E-03
			142.40		4.3202E-03
			145.40		4.2438E-03
			148.40		4.9951E-03
			151.40		3.9363E-03
			154.40		3.9987E-03
			157.40		3.5682E-03
			160.40		2.4756E-03
			163.40		2.8894E-03
			166.40		2.8290E-03
			169.40		2.7218E-03
			172.40		2.8698E-03
		END_DATA
	END_SCAN  15
	BEGIN_SCAN  16
		TASK_NAME=MODE_INTERVAL
		PROGRAM=BeamAdjust 1.2
		MEAS_DATE=07-Oct-2010 14:03:27
		LINAC=A4
		MODALITY=X
		INPLANE_AXIS_DIR=GUN_TARGET
		CROSSPLANE_AXIS_DIR=LEFT_RIGHT
		DEPTH_AXIS_DIR=UP_DOWN
		ENERGY=6.00
		SSD=950.00
		WEDGE=None
		FIELD_INPLANE=100.00
		FIELD_CROSSPLANE=100.00
		FIELD_TYPE=RECTANGULAR
		GANTRY=0.00
		GANTRY_UPRIGHT_POSITION=0
		GANTRY_ROTATION=CW
		COLL_ANGLE=90.00
		COLL_OFFSET_INPLANE=0.00
		COLL_OFFSET_CROSSPLANE=0.00
		SCAN_DEVICE=STARCHECK
		ELECTROMETER=2D_ARRAY_INTERFACE
		DETECTOR=STARCHECK
		SCAN_CURVETYPE=INPLANE_PROFILE
		SCAN_DEPTH=0.00
		SCAN_OFFAXIS_CROSSPLANE=0.00
		SCAN_ANGLE=0.00
		SCAN_DIAGONAL=SECOND_DIAGONAL
		MEAS_PRESET=TIME_PRESET
		MEAS_TIME=10.000
		MEAS_UNIT=GY
		PRESSURE=1013.25
		TEMPERATURE=20.00
		NORM_TEMPERATURE=20.00
		CORRECTION_FACTOR=1.0000
		CORRECTIONS=AIR_DENSITY_CORR;
		BEGIN_DATA
			-172.40		2.3909E-03
			-169.40		2.5967E-03
			-166.40		2.7773E-03
			-163.40		3.0075E-03
			-160.40		3.3443E-03
			-157.40		3.6568E-03
			-154.40		3.8817E-03
			-151.40		3.9401E-03
			-148.40		4.3105E-03
			-145.40		4.4330E-03
			-142.40		4.8778E-03
			-139.40		5.9356E-03
			-136.40		5.4753E-03
			-133.40		6.1185E-03
			-130.40		6.3904E-03
			-127.40		7.0327E-03
			-124.40		7.6463E-03
			-121.40		8.2207E-03
			-118.40		8.8816E-03
			-115.40		9.1606E-03
			-112.40		9.5892E-03
			-109.40		10.990E-03
			-106.40		11.713E-03
			-103.40		12.700E-03
			-100.40		14.431E-03
			-97.40		15.979E-03
			-94.40		17.069E-03
			-91.40		18.761E-03
			-88.40		20.097E-03
			-85.40		22.532E-03
			-82.40		25.660E-03
			-79.40		29.256E-03
			-76.40		34.421E-03
			-73.40		43.379E-03
			-70.40		60.715E-03
			-67.40		117.71E-03
			-64.40		267.23E-03
			-61.40		434.34E-03
			-58.40		560.35E-03
			-55.40		611.54E-03
			-52.40		635.00E-03
			-49.40		645.60E-03
			-46.40		651.71E-03
			-43.40		655.86E-03
			-40.40		658.72E-03
			-37.40		662.99E-03
			-34.40		662.93E-03
			-31.40		664.90E-03
			-28.40		667.09E-03
			-25.40		666.34E-03
			-22.40		664.75E-03
			-19.40		667.81E-03
			-16.40		668.47E-03
			-13.40		671.75E-03
			0.00		668.73E-03
			13.40		673.33E-03
			16.40		670.61E-03
			19.40		666.81E-03
			22.40		663.21E-03
			25.40		662.97E-03
			28.40		662.52E-03
			31.40		660.93E-03
			34.40		658.22E-03
			37.40		658.64E-03
			40.40		657.17E-03
			43.40		655.01E-03
			46.40		653.56E-03
			49.40		650.53E-03
			52.40		642.55E-03
			55.40		635.50E-03
			58.40		626.65E-03
			61.40		603.41E-03
			64.40		545.33E-03
			67.40		428.80E-03
			70.40		272.21E-03
			73.40		134.72E-03
			76.40		68.358E-03
			79.40		45.996E-03
			82.40		37.302E-03
			85.40		31.667E-03
			88.40		27.743E-03
			91.40		25.351E-03
			94.40		22.100E-03
			97.40		20.094E-03
			100.40		17.619E-03
			103.40		16.217E-03
			106.40		14.836E-03
			109.40		13.433E-03
			112.40		12.416E-03
			115.40		11.224E-03
			118.40		10.598E-03
			121.40		9.5599E-03
			124.40		8.6808E-03
			127.40		8.1896E-03
			130.40		7.9848E-03
			133.40		7.4029E-03
			136.40		6.1988E-03
			139.40		6.8676E-03
			142.40		6.1106E-03
			145.40		5.9686E-03
			148.40		5.3523E-03
			151.40		4.4194E-03
			154.40		4.5905E-03
			157.40		4.1913E-03
			160.40		3.7934E-03
			163.40		4.3060E-03
			166.40		3.9211E-03
			169.40		3.1371E-03
			172.40		2.6211E-03
		END_DATA
	END_SCAN  16
END_SCAN_DATA
