BEGIN_SCAN_DATA
	FORMAT=CC-Export V1.9                  
	FILE_CREATION_DATE=07-Oct-2010 14:03:55
	LAST_MODIFIED=07-Oct-2010 14:03:55
	BEGIN_SCAN  1
		TASK_NAME=MODE_INTERVAL
		PROGRAM=BeamAdjust 1.2
		MEAS_DATE=07-Oct-2010 14:03:55
		LINAC=A4
		MODALITY=X
		INPLANE_AXIS_DIR=TARGET_GUN
		CROSSPLANE_AXIS_DIR=LEFT_RIGHT
		DEPTH_AXIS_DIR=UP_DOWN
		ENERGY=6.00
		SSD=950.00
		WEDGE=None
		FIELD_INPLANE=100.00
		FIELD_CROSSPLANE=100.00
		FIELD_TYPE=RECTANGULAR
		GANTRY=0.00
		GANTRY_UPRIGHT_POSITION=0
		GANTRY_ROTATION=CW
		COLL_ANGLE=90.00
		COLL_OFFSET_INPLANE=0.00
		COLL_OFFSET_CROSSPLANE=0.00
		SCAN_DEVICE=STARCHECK
		ELECTROMETER=2D_ARRAY_INTERFACE
		DETECTOR=STARCHECK
		SCAN_CURVETYPE=CROSSPLANE_PROFILE
		SCAN_DEPTH=0.00
		SCAN_OFFAXIS_INPLANE=-130.00
		SCAN_ANGLE=0.00
		SCAN_DIAGONAL=NOT_DIAGONAL
		MEAS_PRESET=TIME_PRESET
		MEAS_TIME=10.000
		MEAS_UNIT=GY
		PRESSURE=1013.25
		TEMPERATURE=20.00
		NORM_TEMPERATURE=20.00
		CORRECTION_FACTOR=1.0000
		CORRECTIONS=AIR_DENSITY_CORR;
		BEGIN_DATA
			-130.00		2.5104E-03
			-80.00		4.4481E-03
			-40.00		7.8799E-03
			40.00		6.3223E-03
			80.00		4.2827E-03
			130.00		2.1813E-03
		END_DATA
	END_SCAN  1
	BEGIN_SCAN  2
		TASK_NAME=MODE_INTERVAL
		PROGRAM=BeamAdjust 1.2
		MEAS_DATE=07-Oct-2010 14:03:55
		LINAC=A4
		MODALITY=X
		INPLANE_AXIS_DIR=TARGET_GUN
		CROSSPLANE_AXIS_DIR=LEFT_RIGHT
		DEPTH_AXIS_DIR=UP_DOWN
		ENERGY=6.00
		SSD=950.00
		WEDGE=None
		FIELD_INPLANE=100.00
		FIELD_CROSSPLANE=100.00
		FIELD_TYPE=RECTANGULAR
		GANTRY=0.00
		GANTRY_UPRIGHT_POSITION=0
		GANTRY_ROTATION=CW
		COLL_ANGLE=90.00
		COLL_OFFSET_INPLANE=0.00
		COLL_OFFSET_CROSSPLANE=0.00
		SCAN_DEVICE=STARCHECK
		ELECTROMETER=2D_ARRAY_INTERFACE
		DETECTOR=STARCHECK
		SCAN_CURVETYPE=CROSSPLANE_PROFILE
		SCAN_DEPTH=0.00
		SCAN_OFFAXIS_INPLANE=-100.00
		SCAN_ANGLE=0.00
		SCAN_DIAGONAL=NOT_DIAGONAL
		MEAS_PRESET=TIME_PRESET
		MEAS_TIME=10.000
		MEAS_UNIT=GY
		PRESSURE=1013.25
		TEMPERATURE=20.00
		NORM_TEMPERATURE=20.00
		CORRECTION_FACTOR=1.0000
		CORRECTIONS=AIR_DENSITY_CORR;
		BEGIN_DATA
			-60.00		11.510E-03
			-30.00		14.599E-03
			30.00		14.816E-03
			60.00		9.0183E-03
		END_DATA
	END_SCAN  2
	BEGIN_SCAN  3
		TASK_NAME=MODE_INTERVAL
		PROGRAM=BeamAdjust 1.2
		MEAS_DATE=07-Oct-2010 14:03:55
		LINAC=A4
		MODALITY=X
		INPLANE_AXIS_DIR=TARGET_GUN
		CROSSPLANE_AXIS_DIR=LEFT_RIGHT
		DEPTH_AXIS_DIR=UP_DOWN
		ENERGY=6.00
		SSD=950.00
		WEDGE=None
		FIELD_INPLANE=100.00
		FIELD_CROSSPLANE=100.00
		FIELD_TYPE=RECTANGULAR
		GANTRY=0.00
		GANTRY_UPRIGHT_POSITION=0
		GANTRY_ROTATION=CW
		COLL_ANGLE=90.00
		COLL_OFFSET_INPLANE=0.00
		COLL_OFFSET_CROSSPLANE=0.00
		SCAN_DEVICE=STARCHECK
		ELECTROMETER=2D_ARRAY_INTERFACE
		DETECTOR=STARCHECK
		SCAN_CURVETYPE=CROSSPLANE_PROFILE
		SCAN_DEPTH=0.00
		SCAN_OFFAXIS_INPLANE=-50.00
		SCAN_ANGLE=0.00
		SCAN_DIAGONAL=NOT_DIAGONAL
		MEAS_PRESET=TIME_PRESET
		MEAS_TIME=10.000
		MEAS_UNIT=GY
		PRESSURE=1013.25
		TEMPERATURE=20.00
		NORM_TEMPERATURE=20.00
		CORRECTION_FACTOR=1.0000
		CORRECTIONS=AIR_DENSITY_CORR;
		BEGIN_DATA
			-30.00		384.45E-03
			-15.00		383.17E-03
			15.00		389.94E-03
			30.00		376.61E-03
		END_DATA
	END_SCAN  3
	BEGIN_SCAN  4
		TASK_NAME=MODE_INTERVAL
		PROGRAM=BeamAdjust 1.2
		MEAS_DATE=07-Oct-2010 14:03:55
		LINAC=A4
		MODALITY=X
		INPLANE_AXIS_DIR=TARGET_GUN
		CROSSPLANE_AXIS_DIR=LEFT_RIGHT
		DEPTH_AXIS_DIR=UP_DOWN
		ENERGY=6.00
		SSD=950.00
		WEDGE=None
		FIELD_INPLANE=100.00
		FIELD_CROSSPLANE=100.00
		FIELD_TYPE=RECTANGULAR
		GANTRY=0.00
		GANTRY_UPRIGHT_POSITION=0
		GANTRY_ROTATION=CW
		COLL_ANGLE=90.00
		COLL_OFFSET_INPLANE=0.00
		COLL_OFFSET_CROSSPLANE=0.00
		SCAN_DEVICE=STARCHECK
		ELECTROMETER=2D_ARRAY_INTERFACE
		DETECTOR=STARCHECK
		SCAN_CURVETYPE=CROSSPLANE_PROFILE
		SCAN_DEPTH=0.00
		SCAN_OFFAXIS_INPLANE=0.00
		SCAN_ANGLE=0.00
		SCAN_DIAGONAL=NOT_DIAGONAL
		MEAS_PRESET=TIME_PRESET
		MEAS_TIME=10.000
		MEAS_UNIT=GY
		PRESSURE=1013.25
		TEMPERATURE=20.00
		NORM_TEMPERATURE=20.00
		CORRECTION_FACTOR=1.0000
		CORRECTIONS=AIR_DENSITY_CORR;
		BEGIN_DATA
			-126.00		7.5960E-03
			-123.00		8.3179E-03
			-120.00		9.3449E-03
			-117.00		9.8483E-03
			-114.00		10.064E-03
			-111.00		10.936E-03
			-108.00		12.025E-03
			-105.00		12.601E-03
			-102.00		13.206E-03
			-99.00		14.900E-03
			-96.00		16.422E-03
			-93.00		17.880E-03
			-90.00		19.385E-03
			-87.00		21.436E-03
			-84.00		24.251E-03
			-81.00		26.228E-03
			-78.00		29.903E-03
			-75.00		33.322E-03
			-72.00		36.909E-03
			-69.00		43.573E-03
			-66.00		52.690E-03
			-63.00		66.622E-03
			-60.00		96.836E-03
			-57.00		205.26E-03
			-54.00		498.73E-03
			-51.00		607.77E-03
			-48.00		635.29E-03
			-45.00		644.02E-03
			-42.00		649.15E-03
			-39.00		655.85E-03
			-36.00		659.99E-03
			-33.00		659.05E-03
			-30.00		659.35E-03
			-27.00		661.47E-03
			-24.00		664.22E-03
			-21.00		664.55E-03
			-18.00		669.84E-03
			-15.00		668.37E-03
			-12.00		666.47E-03
			-9.00		667.94E-03
			-6.00		667.74E-03
			0.00		668.78E-03
			6.00		671.52E-03
			9.00		669.37E-03
			12.00		665.39E-03
			15.00		665.33E-03
			18.00		664.88E-03
			21.00		662.80E-03
			24.00		658.84E-03
			27.00		662.12E-03
			30.00		658.53E-03
			33.00		653.06E-03
			36.00		644.18E-03
			39.00		625.43E-03
			42.00		569.90E-03
			45.00		325.08E-03
			48.00		120.78E-03
			51.00		74.472E-03
			54.00		56.796E-03
			57.00		46.770E-03
			60.00		40.083E-03
			63.00		35.363E-03
			66.00		30.486E-03
			69.00		27.016E-03
			72.00		24.510E-03
			75.00		22.667E-03
			78.00		20.235E-03
			81.00		18.579E-03
			84.00		16.971E-03
			87.00		15.289E-03
			90.00		14.731E-03
			93.00		13.505E-03
			96.00		12.486E-03
			99.00		11.265E-03
			102.00		10.402E-03
			105.00		9.6499E-03
			108.00		9.8007E-03
			111.00		8.3904E-03
			114.00		8.0916E-03
			117.00		7.4166E-03
			120.00		6.7472E-03
			123.00		6.5542E-03
			126.00		6.5307E-03
		END_DATA
	END_SCAN  4
	BEGIN_SCAN  5
		TASK_NAME=MODE_INTERVAL
		PROGRAM=BeamAdjust 1.2
		MEAS_DATE=07-Oct-2010 14:03:55
		LINAC=A4
		MODALITY=X
		INPLANE_AXIS_DIR=TARGET_GUN
		CROSSPLANE_AXIS_DIR=LEFT_RIGHT
		DEPTH_AXIS_DIR=UP_DOWN
		ENERGY=6.00
		SSD=950.00
		WEDGE=None
		FIELD_INPLANE=100.00
		FIELD_CROSSPLANE=100.00
		FIELD_TYPE=RECTANGULAR
		GANTRY=0.00
		GANTRY_UPRIGHT_POSITION=0
		GANTRY_ROTATION=CW
		COLL_ANGLE=90.00
		COLL_OFFSET_INPLANE=0.00
		COLL_OFFSET_CROSSPLANE=0.00
		SCAN_DEVICE=STARCHECK
		ELECTROMETER=2D_ARRAY_INTERFACE
		DETECTOR=STARCHECK
		SCAN_CURVETYPE=CROSSPLANE_PROFILE
		SCAN_DEPTH=0.00
		SCAN_OFFAXIS_INPLANE=50.00
		SCAN_ANGLE=0.00
		SCAN_DIAGONAL=NOT_DIAGONAL
		MEAS_PRESET=TIME_PRESET
		MEAS_TIME=10.000
		MEAS_UNIT=GY
		PRESSURE=1013.25
		TEMPERATURE=20.00
		NORM_TEMPERATURE=20.00
		CORRECTION_FACTOR=1.0000
		CORRECTIONS=AIR_DENSITY_CORR;
		BEGIN_DATA
			-30.00		265.45E-03
			-15.00		284.18E-03
			15.00		263.52E-03
			30.00		244.14E-03
		END_DATA
	END_SCAN  5
	BEGIN_SCAN  6
		TASK_NAME=MODE_INTERVAL
		PROGRAM=BeamAdjust 1.2
		MEAS_DATE=07-Oct-2010 14:03:55
		LINAC=A4
		MODALITY=X
		INPLANE_AXIS_DIR=TARGET_GUN
		CROSSPLANE_AXIS_DIR=LEFT_RIGHT
		DEPTH_AXIS_DIR=UP_DOWN
		ENERGY=6.00
		SSD=950.00
		WEDGE=None
		FIELD_INPLANE=100.00
		FIELD_CROSSPLANE=100.00
		FIELD_TYPE=RECTANGULAR
		GANTRY=0.00
		GANTRY_UPRIGHT_POSITION=0
		GANTRY_ROTATION=CW
		COLL_ANGLE=90.00
		COLL_OFFSET_INPLANE=0.00
		COLL_OFFSET_CROSSPLANE=0.00
		SCAN_DEVICE=STARCHECK
		ELECTROMETER=2D_ARRAY_INTERFACE
		DETECTOR=STARCHECK
		SCAN_CURVETYPE=CROSSPLANE_PROFILE
		SCAN_DEPTH=0.00
		SCAN_OFFAXIS_INPLANE=100.00
		SCAN_ANGLE=0.00
		SCAN_DIAGONAL=NOT_DIAGONAL
		MEAS_PRESET=TIME_PRESET
		MEAS_TIME=10.000
		MEAS_UNIT=GY
		PRESSURE=1013.25
		TEMPERATURE=20.00
		NORM_TEMPERATURE=20.00
		CORRECTION_FACTOR=1.0000
		CORRECTIONS=AIR_DENSITY_CORR;
		BEGIN_DATA
			-60.00		11.095E-03
			-30.00		15.263E-03
			30.00		14.014E-03
			60.00		8.1593E-03
		END_DATA
	END_SCAN  6
	BEGIN_SCAN  7
		TASK_NAME=MODE_INTERVAL
		PROGRAM=BeamAdjust 1.2
		MEAS_DATE=07-Oct-2010 14:03:55
		LINAC=A4
		MODALITY=X
		INPLANE_AXIS_DIR=TARGET_GUN
		CROSSPLANE_AXIS_DIR=LEFT_RIGHT
		DEPTH_AXIS_DIR=UP_DOWN
		ENERGY=6.00
		SSD=950.00
		WEDGE=None
		FIELD_INPLANE=100.00
		FIELD_CROSSPLANE=100.00
		FIELD_TYPE=RECTANGULAR
		GANTRY=0.00
		GANTRY_UPRIGHT_POSITION=0
		GANTRY_ROTATION=CW
		COLL_ANGLE=90.00
		COLL_OFFSET_INPLANE=0.00
		COLL_OFFSET_CROSSPLANE=0.00
		SCAN_DEVICE=STARCHECK
		ELECTROMETER=2D_ARRAY_INTERFACE
		DETECTOR=STARCHECK
		SCAN_CURVETYPE=CROSSPLANE_PROFILE
		SCAN_DEPTH=0.00
		SCAN_OFFAXIS_INPLANE=130.00
		SCAN_ANGLE=0.00
		SCAN_DIAGONAL=NOT_DIAGONAL
		MEAS_PRESET=TIME_PRESET
		MEAS_TIME=10.000
		MEAS_UNIT=GY
		PRESSURE=1013.25
		TEMPERATURE=20.00
		NORM_TEMPERATURE=20.00
		CORRECTION_FACTOR=1.0000
		CORRECTIONS=AIR_DENSITY_CORR;
		BEGIN_DATA
			-130.00		2.2567E-03
			-80.00		4.5018E-03
			-40.00		7.4109E-03
			40.00		6.4807E-03
			80.00		3.7903E-03
			130.00		2.1096E-03
		END_DATA
	END_SCAN  7
	BEGIN_SCAN  8
		TASK_NAME=MODE_INTERVAL
		PROGRAM=BeamAdjust 1.2
		MEAS_DATE=07-Oct-2010 14:03:55
		LINAC=A4
		MODALITY=X
		INPLANE_AXIS_DIR=TARGET_GUN
		CROSSPLANE_AXIS_DIR=LEFT_RIGHT
		DEPTH_AXIS_DIR=UP_DOWN
		ENERGY=6.00
		SSD=950.00
		WEDGE=None
		FIELD_INPLANE=100.00
		FIELD_CROSSPLANE=100.00
		FIELD_TYPE=RECTANGULAR
		GANTRY=0.00
		GANTRY_UPRIGHT_POSITION=0
		GANTRY_ROTATION=CW
		COLL_ANGLE=90.00
		COLL_OFFSET_INPLANE=0.00
		COLL_OFFSET_CROSSPLANE=0.00
		SCAN_DEVICE=STARCHECK
		ELECTROMETER=2D_ARRAY_INTERFACE
		DETECTOR=STARCHECK
		SCAN_CURVETYPE=INPLANE_PROFILE
		SCAN_DEPTH=0.00
		SCAN_OFFAXIS_CROSSPLANE=-130.00
		SCAN_ANGLE=0.00
		SCAN_DIAGONAL=NOT_DIAGONAL
		MEAS_PRESET=TIME_PRESET
		MEAS_TIME=10.000
		MEAS_UNIT=GY
		PRESSURE=1013.25
		TEMPERATURE=20.00
		NORM_TEMPERATURE=20.00
		CORRECTION_FACTOR=1.0000
		CORRECTIONS=AIR_DENSITY_CORR;
		BEGIN_DATA
			-130.00		2.5104E-03
			-125.00		2.6504E-03
			-120.00		3.4239E-03
			-115.00		3.7635E-03
			-110.00		3.6557E-03
			-105.00		3.9001E-03
			-100.00		4.3767E-03
			-95.00		4.8150E-03
			-90.00		5.1618E-03
			-85.00		4.9293E-03
			-80.00		4.4389E-03
			-75.00		5.6762E-03
			-70.00		5.3582E-03
			-65.00		5.6559E-03
			-60.00		5.7374E-03
			-55.00		6.5607E-03
			-50.00		4.8659E-03
			-45.00		5.1287E-03
			-40.00		5.3229E-03
			-35.00		6.1643E-03
			-30.00		6.0027E-03
			-25.00		5.6666E-03
			-20.00		6.0439E-03
			-15.00		5.8541E-03
			-10.00		6.0164E-03
			-5.00		7.2887E-03
			0.00		6.9369E-03
			5.00		7.1042E-03
			10.00		6.2478E-03
			15.00		6.1042E-03
			20.00		6.6179E-03
			25.00		5.7594E-03
			30.00		6.1216E-03
			35.00		6.2899E-03
			40.00		5.8371E-03
			45.00		5.2776E-03
			50.00		5.3835E-03
			55.00		5.1438E-03
			60.00		5.0971E-03
			65.00		4.9061E-03
			70.00		4.4084E-03
			75.00		4.4400E-03
			80.00		4.1034E-03
			85.00		3.8059E-03
			90.00		3.7417E-03
			95.00		3.7815E-03
			100.00		3.1520E-03
			105.00		2.7207E-03
			110.00		2.8751E-03
			115.00		2.4643E-03
			120.00		2.8308E-03
			125.00		2.6065E-03
			130.00		2.2567E-03
		END_DATA
	END_SCAN  8
	BEGIN_SCAN  9
		TASK_NAME=MODE_INTERVAL
		PROGRAM=BeamAdjust 1.2
		MEAS_DATE=07-Oct-2010 14:03:55
		LINAC=A4
		MODALITY=X
		INPLANE_AXIS_DIR=TARGET_GUN
		CROSSPLANE_AXIS_DIR=LEFT_RIGHT
		DEPTH_AXIS_DIR=UP_DOWN
		ENERGY=6.00
		SSD=950.00
		WEDGE=None
		FIELD_INPLANE=100.00
		FIELD_CROSSPLANE=100.00
		FIELD_TYPE=RECTANGULAR
		GANTRY=0.00
		GANTRY_UPRIGHT_POSITION=0
		GANTRY_ROTATION=CW
		COLL_ANGLE=90.00
		COLL_OFFSET_INPLANE=0.00
		COLL_OFFSET_CROSSPLANE=0.00
		SCAN_DEVICE=STARCHECK
		ELECTROMETER=2D_ARRAY_INTERFACE
		DETECTOR=STARCHECK
		SCAN_CURVETYPE=INPLANE_PROFILE
		SCAN_DEPTH=0.00
		SCAN_OFFAXIS_CROSSPLANE=-100.00
		SCAN_ANGLE=0.00
		SCAN_DIAGONAL=NOT_DIAGONAL
		MEAS_PRESET=TIME_PRESET
		MEAS_TIME=10.000
		MEAS_UNIT=GY
		PRESSURE=1013.25
		TEMPERATURE=20.00
		NORM_TEMPERATURE=20.00
		CORRECTION_FACTOR=1.0000
		CORRECTIONS=AIR_DENSITY_CORR;
		BEGIN_DATA
			-60.00		10.386E-03
			-30.00		11.956E-03
			30.00		11.945E-03
			60.00		9.0196E-03
		END_DATA
	END_SCAN  9
	BEGIN_SCAN  10
		TASK_NAME=MODE_INTERVAL
		PROGRAM=BeamAdjust 1.2
		MEAS_DATE=07-Oct-2010 14:03:55
		LINAC=A4
		MODALITY=X
		INPLANE_AXIS_DIR=TARGET_GUN
		CROSSPLANE_AXIS_DIR=LEFT_RIGHT
		DEPTH_AXIS_DIR=UP_DOWN
		ENERGY=6.00
		SSD=950.00
		WEDGE=None
		FIELD_INPLANE=100.00
		FIELD_CROSSPLANE=100.00
		FIELD_TYPE=RECTANGULAR
		GANTRY=0.00
		GANTRY_UPRIGHT_POSITION=0
		GANTRY_ROTATION=CW
		COLL_ANGLE=90.00
		COLL_OFFSET_INPLANE=0.00
		COLL_OFFSET_CROSSPLANE=0.00
		SCAN_DEVICE=STARCHECK
		ELECTROMETER=2D_ARRAY_INTERFACE
		DETECTOR=STARCHECK
		SCAN_CURVETYPE=INPLANE_PROFILE
		SCAN_DEPTH=0.00
		SCAN_OFFAXIS_CROSSPLANE=-50.00
		SCAN_ANGLE=0.00
		SCAN_DIAGONAL=NOT_DIAGONAL
		MEAS_PRESET=TIME_PRESET
		MEAS_TIME=10.000
		MEAS_UNIT=GY
		PRESSURE=1013.25
		TEMPERATURE=20.00
		NORM_TEMPERATURE=20.00
		CORRECTION_FACTOR=1.0000
		CORRECTIONS=AIR_DENSITY_CORR;
		BEGIN_DATA
			-30.00		633.62E-03
			-15.00		635.15E-03
			15.00		634.57E-03
			30.00		628.60E-03
		END_DATA
	END_SCAN  10
	BEGIN_SCAN  11
		TASK_NAME=MODE_INTERVAL
		PROGRAM=BeamAdjust 1.2
		MEAS_DATE=07-Oct-2010 14:03:55
		LINAC=A4
		MODALITY=X
		INPLANE_AXIS_DIR=TARGET_GUN
		CROSSPLANE_AXIS_DIR=LEFT_RIGHT
		DEPTH_AXIS_DIR=UP_DOWN
		ENERGY=6.00
		SSD=950.00
		WEDGE=None
		FIELD_INPLANE=100.00
		FIELD_CROSSPLANE=100.00
		FIELD_TYPE=RECTANGULAR
		GANTRY=0.00
		GANTRY_UPRIGHT_POSITION=0
		GANTRY_ROTATION=CW
		COLL_ANGLE=90.00
		COLL_OFFSET_INPLANE=0.00
		COLL_OFFSET_CROSSPLANE=0.00
		SCAN_DEVICE=STARCHECK
		ELECTROMETER=2D_ARRAY_INTERFACE
		DETECTOR=STARCHECK
		SCAN_CURVETYPE=INPLANE_PROFILE
		SCAN_DEPTH=0.00
		SCAN_OFFAXIS_CROSSPLANE=0.00
		SCAN_ANGLE=0.00
		SCAN_DIAGONAL=NOT_DIAGONAL
		MEAS_PRESET=TIME_PRESET
		MEAS_TIME=10.000
		MEAS_UNIT=GY
		PRESSURE=1013.25
		TEMPERATURE=20.00
		NORM_TEMPERATURE=20.00
		CORRECTION_FACTOR=1.0000
		CORRECTIONS=AIR_DENSITY_CORR;
		BEGIN_DATA
			-126.00		9.1611E-03
			-123.00		9.1591E-03
			-120.00		10.484E-03
			-117.00		11.690E-03
			-114.00		11.921E-03
			-111.00		12.821E-03
			-108.00		13.671E-03
			-105.00		14.767E-03
			-102.00		16.474E-03
			-99.00		16.652E-03
			-96.00		18.358E-03
			-93.00		20.307E-03
			-90.00		21.877E-03
			-87.00		23.327E-03
			-84.00		25.657E-03
			-81.00		28.115E-03
			-78.00		31.057E-03
			-75.00		33.226E-03
			-72.00		36.919E-03
			-69.00		40.531E-03
			-66.00		45.722E-03
			-63.00		52.248E-03
			-60.00		62.302E-03
			-57.00		81.808E-03
			-54.00		130.78E-03
			-51.00		294.44E-03
			-48.00		550.78E-03
			-45.00		622.16E-03
			-42.00		642.81E-03
			-39.00		651.88E-03
			-36.00		657.59E-03
			-33.00		660.65E-03
			-30.00		664.53E-03
			-27.00		665.73E-03
			-24.00		665.34E-03
			-21.00		664.17E-03
			-18.00		670.48E-03
			-15.00		669.16E-03
			-12.00		670.80E-03
			-9.00		670.83E-03
			-6.00		668.90E-03
			0.00		668.78E-03
			6.00		672.49E-03
			9.00		671.20E-03
			12.00		670.01E-03
			15.00		668.66E-03
			18.00		664.10E-03
			21.00		663.90E-03
			24.00		660.69E-03
			27.00		662.34E-03
			30.00		658.04E-03
			33.00		655.73E-03
			36.00		653.55E-03
			39.00		642.51E-03
			42.00		630.78E-03
			45.00		597.33E-03
			48.00		437.38E-03
			51.00		190.93E-03
			54.00		99.155E-03
			57.00		70.520E-03
			60.00		57.092E-03
			63.00		48.803E-03
			66.00		43.237E-03
			69.00		38.904E-03
			72.00		35.161E-03
			75.00		31.482E-03
			78.00		28.294E-03
			81.00		26.133E-03
			84.00		24.349E-03
			87.00		22.594E-03
			90.00		21.279E-03
			93.00		19.546E-03
			96.00		17.969E-03
			99.00		17.144E-03
			102.00		15.230E-03
			105.00		13.994E-03
			108.00		13.376E-03
			111.00		12.429E-03
			114.00		11.598E-03
			117.00		10.848E-03
			120.00		10.388E-03
			123.00		9.6083E-03
			126.00		8.7248E-03
		END_DATA
	END_SCAN  11
	BEGIN_SCAN  12
		TASK_NAME=MODE_INTERVAL
		PROGRAM=BeamAdjust 1.2
		MEAS_DATE=07-Oct-2010 14:03:55
		LINAC=A4
		MODALITY=X
		INPLANE_AXIS_DIR=TARGET_GUN
		CROSSPLANE_AXIS_DIR=LEFT_RIGHT
		DEPTH_AXIS_DIR=UP_DOWN
		ENERGY=6.00
		SSD=950.00
		WEDGE=None
		FIELD_INPLANE=100.00
		FIELD_CROSSPLANE=100.00
		FIELD_TYPE=RECTANGULAR
		GANTRY=0.00
		GANTRY_UPRIGHT_POSITION=0
		GANTRY_ROTATION=CW
		COLL_ANGLE=90.00
		COLL_OFFSET_INPLANE=0.00
		COLL_OFFSET_CROSSPLANE=0.00
		SCAN_DEVICE=STARCHECK
		ELECTROMETER=2D_ARRAY_INTERFACE
		DETECTOR=STARCHECK
		SCAN_CURVETYPE=INPLANE_PROFILE
		SCAN_DEPTH=0.00
		SCAN_OFFAXIS_CROSSPLANE=50.00
		SCAN_ANGLE=0.00
		SCAN_DIAGONAL=NOT_DIAGONAL
		MEAS_PRESET=TIME_PRESET
		MEAS_TIME=10.000
		MEAS_UNIT=GY
		PRESSURE=1013.25
		TEMPERATURE=20.00
		NORM_TEMPERATURE=20.00
		CORRECTION_FACTOR=1.0000
		CORRECTIONS=AIR_DENSITY_CORR;
		BEGIN_DATA
			-30.00		67.260E-03
			-15.00		72.369E-03
			15.00		73.058E-03
			30.00		70.043E-03
		END_DATA
	END_SCAN  12
	BEGIN_SCAN  13
		TASK_NAME=MODE_INTERVAL
		PROGRAM=BeamAdjust 1.2
		MEAS_DATE=07-Oct-2010 14:03:55
		LINAC=A4
		MODALITY=X
		INPLANE_AXIS_DIR=TARGET_GUN
		CROSSPLANE_AXIS_DIR=LEFT_RIGHT
		DEPTH_AXIS_DIR=UP_DOWN
		ENERGY=6.00
		SSD=950.00
		WEDGE=None
		FIELD_INPLANE=100.00
		FIELD_CROSSPLANE=100.00
		FIELD_TYPE=RECTANGULAR
		GANTRY=0.00
		GANTRY_UPRIGHT_POSITION=0
		GANTRY_ROTATION=CW
		COLL_ANGLE=90.00
		COLL_OFFSET_INPLANE=0.00
		COLL_OFFSET_CROSSPLANE=0.00
		SCAN_DEVICE=STARCHECK
		ELECTROMETER=2D_ARRAY_INTERFACE
		DETECTOR=STARCHECK
		SCAN_CURVETYPE=INPLANE_PROFILE
		SCAN_DEPTH=0.00
		SCAN_OFFAXIS_CROSSPLANE=100.00
		SCAN_ANGLE=0.00
		SCAN_DIAGONAL=NOT_DIAGONAL
		MEAS_PRESET=TIME_PRESET
		MEAS_TIME=10.000
		MEAS_UNIT=GY
		PRESSURE=1013.25
		TEMPERATURE=20.00
		NORM_TEMPERATURE=20.00
		CORRECTION_FACTOR=1.0000
		CORRECTIONS=AIR_DENSITY_CORR;
		BEGIN_DATA
			-60.00		7.3167E-03
			-30.00		9.3582E-03
			30.00		9.1399E-03
			60.00		6.6635E-03
		END_DATA
	END_SCAN  13
	BEGIN_SCAN  14
		TASK_NAME=MODE_INTERVAL
		PROGRAM=BeamAdjust 1.2
		MEAS_DATE=07-Oct-2010 14:03:55
		LINAC=A4
		MODALITY=X
		INPLANE_AXIS_DIR=TARGET_GUN
		CROSSPLANE_AXIS_DIR=LEFT_RIGHT
		DEPTH_AXIS_DIR=UP_DOWN
		ENERGY=6.00
		SSD=950.00
		WEDGE=None
		FIELD_INPLANE=100.00
		FIELD_CROSSPLANE=100.00
		FIELD_TYPE=RECTANGULAR
		GANTRY=0.00
		GANTRY_UPRIGHT_POSITION=0
		GANTRY_ROTATION=CW
		COLL_ANGLE=90.00
		COLL_OFFSET_INPLANE=0.00
		COLL_OFFSET_CROSSPLANE=0.00
		SCAN_DEVICE=STARCHECK
		ELECTROMETER=2D_ARRAY_INTERFACE
		DETECTOR=STARCHECK
		SCAN_CURVETYPE=INPLANE_PROFILE
		SCAN_DEPTH=0.00
		SCAN_OFFAXIS_CROSSPLANE=130.00
		SCAN_ANGLE=0.00
		SCAN_DIAGONAL=NOT_DIAGONAL
		MEAS_PRESET=TIME_PRESET
		MEAS_TIME=10.000
		MEAS_UNIT=GY
		PRESSURE=1013.25
		TEMPERATURE=20.00
		NORM_TEMPERATURE=20.00
		CORRECTION_FACTOR=1.0000
		CORRECTIONS=AIR_DENSITY_CORR;
		BEGIN_DATA
			-130.00		2.1813E-03
			-125.00		2.3311E-03
			-120.00		2.2881E-03
			-115.00		2.5522E-03
			-110.00		2.1904E-03
			-105.00		2.4647E-03
			-100.00		3.0283E-03
			-95.00		2.6705E-03
			-90.00		2.5503E-03
			-85.00		3.4525E-03
			-80.00		3.5825E-03
			-75.00		3.7060E-03
			-70.00		3.6566E-03
			-65.00		3.7429E-03
			-60.00		4.6726E-03
			-55.00		3.8660E-03
			-50.00		3.9577E-03
			-45.00		4.3180E-03
			-40.00		4.5492E-03
			-35.00		4.8084E-03
			-30.00		4.9044E-03
			-25.00		4.7813E-03
			-20.00		4.9616E-03
			-15.00		4.6917E-03
			-10.00		4.3684E-03
			-5.00		5.2965E-03
			0.00		5.6040E-03
			5.00		5.5406E-03
			10.00		5.2931E-03
			15.00		4.9538E-03
			20.00		5.0686E-03
			25.00		4.9468E-03
			30.00		4.6272E-03
			35.00		4.6913E-03
			40.00		5.1444E-03
			45.00		4.7124E-03
			50.00		4.5213E-03
			55.00		4.7475E-03
			60.00		4.1576E-03
			65.00		3.5156E-03
			70.00		3.9596E-03
			75.00		4.3886E-03
			80.00		3.6315E-03
			85.00		3.5629E-03
			90.00		3.3075E-03
			95.00		3.2197E-03
			100.00		3.3952E-03
			105.00		2.6410E-03
			110.00		2.5511E-03
			115.00		2.5045E-03
			120.00		2.7079E-03
			125.00		2.4217E-03
			130.00		2.1096E-03
		END_DATA
	END_SCAN  14
	BEGIN_SCAN  15
		TASK_NAME=MODE_INTERVAL
		PROGRAM=BeamAdjust 1.2
		MEAS_DATE=07-Oct-2010 14:03:55
		LINAC=A4
		MODALITY=X
		INPLANE_AXIS_DIR=TARGET_GUN
		CROSSPLANE_AXIS_DIR=LEFT_RIGHT
		DEPTH_AXIS_DIR=UP_DOWN
		ENERGY=6.00
		SSD=950.00
		WEDGE=None
		FIELD_INPLANE=100.00
		FIELD_CROSSPLANE=100.00
		FIELD_TYPE=RECTANGULAR
		GANTRY=0.00
		GANTRY_UPRIGHT_POSITION=0
		GANTRY_ROTATION=CW
		COLL_ANGLE=90.00
		COLL_OFFSET_INPLANE=0.00
		COLL_OFFSET_CROSSPLANE=0.00
		SCAN_DEVICE=STARCHECK
		ELECTROMETER=2D_ARRAY_INTERFACE
		DETECTOR=STARCHECK
		SCAN_CURVETYPE=INPLANE_PROFILE
		SCAN_DEPTH=0.00
		SCAN_OFFAXIS_CROSSPLANE=0.00
		SCAN_ANGLE=0.00
		SCAN_DIAGONAL=FIRST_DIAGONAL
		MEAS_PRESET=TIME_PRESET
		MEAS_TIME=10.000
		MEAS_UNIT=GY
		PRESSURE=1013.25
		TEMPERATURE=20.00
		NORM_TEMPERATURE=20.00
		CORRECTION_FACTOR=1.0000
		CORRECTIONS=AIR_DENSITY_CORR;
		BEGIN_DATA
			-172.40		3.0365E-03
			-169.40		3.4175E-03
			-166.40		3.9608E-03
			-163.40		4.3258E-03
			-160.40		4.1176E-03
			-157.40		4.3642E-03
			-154.40		4.1931E-03
			-151.40		4.4026E-03
			-148.40		5.1195E-03
			-145.40		5.6439E-03
			-142.40		6.0054E-03
			-139.40		6.6218E-03
			-136.40		6.7929E-03
			-133.40		7.3253E-03
			-130.40		7.8217E-03
			-127.40		8.3288E-03
			-124.40		9.0063E-03
			-121.40		10.328E-03
			-118.40		11.335E-03
			-115.40		12.111E-03
			-112.40		12.803E-03
			-109.40		14.155E-03
			-106.40		15.608E-03
			-103.40		16.126E-03
			-100.40		17.742E-03
			-97.40		20.706E-03
			-94.40		22.968E-03
			-91.40		25.581E-03
			-88.40		29.194E-03
			-85.40		33.937E-03
			-82.40		41.229E-03
			-79.40		56.138E-03
			-76.40		96.030E-03
			-73.40		218.69E-03
			-70.40		382.80E-03
			-67.40		518.15E-03
			-64.40		591.90E-03
			-61.40		620.91E-03
			-58.40		634.15E-03
			-55.40		642.75E-03
			-52.40		648.35E-03
			-49.40		652.35E-03
			-46.40		654.17E-03
			-43.40		655.80E-03
			-40.40		658.45E-03
			-37.40		663.33E-03
			-34.40		662.58E-03
			-31.40		663.73E-03
			-28.40		661.77E-03
			-25.40		664.72E-03
			-22.40		666.13E-03
			-19.40		667.39E-03
			-16.40		670.18E-03
			-13.40		670.93E-03
			0.00		668.78E-03
			13.40		669.72E-03
			16.40		665.83E-03
			19.40		666.42E-03
			22.40		665.69E-03
			25.40		664.01E-03
			28.40		662.74E-03
			31.40		659.23E-03
			34.40		656.02E-03
			37.40		658.22E-03
			40.40		655.00E-03
			43.40		650.63E-03
			46.40		646.64E-03
			49.40		638.20E-03
			52.40		627.62E-03
			55.40		601.97E-03
			58.40		546.91E-03
			61.40		417.43E-03
			64.40		231.69E-03
			67.40		96.029E-03
			70.40		54.616E-03
			73.40		40.526E-03
			76.40		32.883E-03
			79.40		28.365E-03
			82.40		25.152E-03
			85.40		22.491E-03
			88.40		20.809E-03
			91.40		17.950E-03
			94.40		16.637E-03
			97.40		15.278E-03
			100.40		13.804E-03
			103.40		13.184E-03
			106.40		12.180E-03
			109.40		10.805E-03
			112.40		9.4157E-03
			115.40		9.1606E-03
			118.40		8.2513E-03
			121.40		7.5468E-03
			124.40		7.1360E-03
			127.40		6.9698E-03
			130.40		6.8601E-03
			133.40		5.8241E-03
			136.40		5.1736E-03
			139.40		4.9880E-03
			142.40		4.4015E-03
			145.40		4.3924E-03
			148.40		4.5038E-03
			151.40		3.9884E-03
			154.40		3.7363E-03
			157.40		3.6172E-03
			160.40		2.8390E-03
			163.40		2.5038E-03
			166.40		2.8052E-03
			169.40		2.9839E-03
			172.40		3.0907E-03
		END_DATA
	END_SCAN  15
	BEGIN_SCAN  16
		TASK_NAME=MODE_INTERVAL
		PROGRAM=BeamAdjust 1.2
		MEAS_DATE=07-Oct-2010 14:03:55
		LINAC=A4
		MODALITY=X
		INPLANE_AXIS_DIR=GUN_TARGET
		CROSSPLANE_AXIS_DIR=LEFT_RIGHT
		DEPTH_AXIS_DIR=UP_DOWN
		ENERGY=6.00
		SSD=950.00
		WEDGE=None
		FIELD_INPLANE=100.00
		FIELD_CROSSPLANE=100.00
		FIELD_TYPE=RECTANGULAR
		GANTRY=0.00
		GANTRY_UPRIGHT_POSITION=0
		GANTRY_ROTATION=CW
		COLL_ANGLE=90.00
		COLL_OFFSET_INPLANE=0.00
		COLL_OFFSET_CROSSPLANE=0.00
		SCAN_DEVICE=STARCHECK
		ELECTROMETER=2D_ARRAY_INTERFACE
		DETECTOR=STARCHECK
		SCAN_CURVETYPE=INPLANE_PROFILE
		SCAN_DEPTH=0.00
		SCAN_OFFAXIS_CROSSPLANE=0.00
		SCAN_ANGLE=0.00
		SCAN_DIAGONAL=SECOND_DIAGONAL
		MEAS_PRESET=TIME_PRESET
		MEAS_TIME=10.000
		MEAS_UNIT=GY
		PRESSURE=1013.25
		TEMPERATURE=20.00
		NORM_TEMPERATURE=20.00
		CORRECTION_FACTOR=1.0000
		CORRECTIONS=AIR_DENSITY_CORR;
		BEGIN_DATA
			-172.40		2.5916E-03
			-169.40		2.7006E-03
			-166.40		2.9070E-03
			-163.40		3.0372E-03
			-160.40		3.1288E-03
			-157.40		3.2721E-03
			-154.40		3.8506E-03
			-151.40		4.4369E-03
			-148.40		4.6095E-03
			-145.40		4.2833E-03
			-142.40		5.0049E-03
			-139.40		5.0514E-03
			-136.40		5.2678E-03
			-133.40		6.2443E-03
			-130.40		6.4200E-03
			-127.40		6.9425E-03
			-124.40		7.6537E-03
			-121.40		8.2073E-03
			-118.40		8.9023E-03
			-115.40		9.1295E-03
			-112.40		9.3720E-03
			-109.40		10.921E-03
			-106.40		12.030E-03
			-103.40		13.057E-03
			-100.40		14.307E-03
			-97.40		15.384E-03
			-94.40		16.627E-03
			-91.40		18.708E-03
			-88.40		20.021E-03
			-85.40		22.397E-03
			-82.40		25.363E-03
			-79.40		29.001E-03
			-76.40		33.949E-03
			-73.40		42.238E-03
			-70.40		58.064E-03
			-67.40		107.14E-03
			-64.40		247.11E-03
			-61.40		414.53E-03
			-58.40		547.65E-03
			-55.40		606.92E-03
			-52.40		633.53E-03
			-49.40		644.31E-03
			-46.40		650.73E-03
			-43.40		655.33E-03
			-40.40		658.45E-03
			-37.40		662.28E-03
			-34.40		662.32E-03
			-31.40		664.32E-03
			-28.40		666.82E-03
			-25.40		665.99E-03
			-22.40		664.15E-03
			-19.40		667.97E-03
			-16.40		668.41E-03
			-13.40		671.00E-03
			0.00		668.78E-03
			13.40		672.56E-03
			16.40		670.46E-03
			19.40		666.20E-03
			22.40		662.74E-03
			25.40		662.99E-03
			28.40		661.64E-03
			31.40		660.58E-03
			34.40		658.29E-03
			37.40		657.74E-03
			40.40		656.88E-03
			43.40		654.60E-03
			46.40		653.58E-03
			49.40		649.77E-03
			52.40		642.10E-03
			55.40		635.16E-03
			58.40		626.81E-03
			61.40		603.26E-03
			64.40		544.69E-03
			67.40		429.39E-03
			70.40		274.41E-03
			73.40		138.24E-03
			76.40		69.894E-03
			79.40		46.755E-03
			82.40		37.803E-03
			85.40		31.852E-03
			88.40		28.682E-03
			91.40		25.340E-03
			94.40		22.286E-03
			97.40		20.281E-03
			100.40		17.616E-03
			103.40		16.148E-03
			106.40		15.117E-03
			109.40		13.490E-03
			112.40		12.805E-03
			115.40		11.435E-03
			118.40		10.332E-03
			121.40		9.7521E-03
			124.40		8.9919E-03
			127.40		8.1777E-03
			130.40		8.5058E-03
			133.40		7.0283E-03
			136.40		6.3944E-03
			139.40		6.8078E-03
			142.40		6.3197E-03
			145.40		5.9266E-03
			148.40		5.0155E-03
			151.40		4.5243E-03
			154.40		4.7392E-03
			157.40		4.6029E-03
			160.40		4.0522E-03
			163.40		3.9440E-03
			166.40		3.5716E-03
			169.40		3.1416E-03
			172.40		3.6110E-03
		END_DATA
	END_SCAN  16
END_SCAN_DATA
