BEGIN_SCAN_DATA
	FORMAT=CC-Export V1.9                  
	FILE_CREATION_DATE=07-Oct-2010 14:04:22
	LAST_MODIFIED=07-Oct-2010 14:04:22
	BEGIN_SCAN  1
		TASK_NAME=MODE_INTERVAL
		PROGRAM=BeamAdjust 1.2
		MEAS_DATE=07-Oct-2010 14:04:22
		LINAC=A4
		MODALITY=X
		INPLANE_AXIS_DIR=TARGET_GUN
		CROSSPLANE_AXIS_DIR=LEFT_RIGHT
		DEPTH_AXIS_DIR=UP_DOWN
		ENERGY=6.00
		SSD=950.00
		WEDGE=None
		FIELD_INPLANE=100.00
		FIELD_CROSSPLANE=100.00
		FIELD_TYPE=RECTANGULAR
		GANTRY=0.00
		GANTRY_UPRIGHT_POSITION=0
		GANTRY_ROTATION=CW
		COLL_ANGLE=90.00
		COLL_OFFSET_INPLANE=0.00
		COLL_OFFSET_CROSSPLANE=0.00
		SCAN_DEVICE=STARCHECK
		ELECTROMETER=2D_ARRAY_INTERFACE
		DETECTOR=STARCHECK
		SCAN_CURVETYPE=CROSSPLANE_PROFILE
		SCAN_DEPTH=0.00
		SCAN_OFFAXIS_INPLANE=-130.00
		SCAN_ANGLE=0.00
		SCAN_DIAGONAL=NOT_DIAGONAL
		MEAS_PRESET=TIME_PRESET
		MEAS_TIME=10.000
		MEAS_UNIT=GY
		PRESSURE=1013.25
		TEMPERATURE=20.00
		NORM_TEMPERATURE=20.00
		CORRECTION_FACTOR=1.0000
		CORRECTIONS=AIR_DENSITY_CORR;
		BEGIN_DATA
			-130.00		2.7258E-03
			-80.00		4.8799E-03
			-40.00		7.5651E-03
			40.00		6.7297E-03
			80.00		3.7370E-03
			130.00		1.9135E-03
		END_DATA
	END_SCAN  1
	BEGIN_SCAN  2
		TASK_NAME=MODE_INTERVAL
		PROGRAM=BeamAdjust 1.2
		MEAS_DATE=07-Oct-2010 14:04:22
		LINAC=A4
		MODALITY=X
		INPLANE_AXIS_DIR=TARGET_GUN
		CROSSPLANE_AXIS_DIR=LEFT_RIGHT
		DEPTH_AXIS_DIR=UP_DOWN
		ENERGY=6.00
		SSD=950.00
		WEDGE=None
		FIELD_INPLANE=100.00
		FIELD_CROSSPLANE=100.00
		FIELD_TYPE=RECTANGULAR
		GANTRY=0.00
		GANTRY_UPRIGHT_POSITION=0
		GANTRY_ROTATION=CW
		COLL_ANGLE=90.00
		COLL_OFFSET_INPLANE=0.00
		COLL_OFFSET_CROSSPLANE=0.00
		SCAN_DEVICE=STARCHECK
		ELECTROMETER=2D_ARRAY_INTERFACE
		DETECTOR=STARCHECK
		SCAN_CURVETYPE=CROSSPLANE_PROFILE
		SCAN_DEPTH=0.00
		SCAN_OFFAXIS_INPLANE=-100.00
		SCAN_ANGLE=0.00
		SCAN_DIAGONAL=NOT_DIAGONAL
		MEAS_PRESET=TIME_PRESET
		MEAS_TIME=10.000
		MEAS_UNIT=GY
		PRESSURE=1013.25
		TEMPERATURE=20.00
		NORM_TEMPERATURE=20.00
		CORRECTION_FACTOR=1.0000
		CORRECTIONS=AIR_DENSITY_CORR;
		BEGIN_DATA
			-60.00		11.750E-03
			-30.00		14.753E-03
			30.00		14.427E-03
			60.00		9.4303E-03
		END_DATA
	END_SCAN  2
	BEGIN_SCAN  3
		TASK_NAME=MODE_INTERVAL
		PROGRAM=BeamAdjust 1.2
		MEAS_DATE=07-Oct-2010 14:04:22
		LINAC=A4
		MODALITY=X
		INPLANE_AXIS_DIR=TARGET_GUN
		CROSSPLANE_AXIS_DIR=LEFT_RIGHT
		DEPTH_AXIS_DIR=UP_DOWN
		ENERGY=6.00
		SSD=950.00
		WEDGE=None
		FIELD_INPLANE=100.00
		FIELD_CROSSPLANE=100.00
		FIELD_TYPE=RECTANGULAR
		GANTRY=0.00
		GANTRY_UPRIGHT_POSITION=0
		GANTRY_ROTATION=CW
		COLL_ANGLE=90.00
		COLL_OFFSET_INPLANE=0.00
		COLL_OFFSET_CROSSPLANE=0.00
		SCAN_DEVICE=STARCHECK
		ELECTROMETER=2D_ARRAY_INTERFACE
		DETECTOR=STARCHECK
		SCAN_CURVETYPE=CROSSPLANE_PROFILE
		SCAN_DEPTH=0.00
		SCAN_OFFAXIS_INPLANE=-50.00
		SCAN_ANGLE=0.00
		SCAN_DIAGONAL=NOT_DIAGONAL
		MEAS_PRESET=TIME_PRESET
		MEAS_TIME=10.000
		MEAS_UNIT=GY
		PRESSURE=1013.25
		TEMPERATURE=20.00
		NORM_TEMPERATURE=20.00
		CORRECTION_FACTOR=1.0000
		CORRECTIONS=AIR_DENSITY_CORR;
		BEGIN_DATA
			-30.00		382.18E-03
			-15.00		383.46E-03
			15.00		388.75E-03
			30.00		375.28E-03
		END_DATA
	END_SCAN  3
	BEGIN_SCAN  4
		TASK_NAME=MODE_INTERVAL
		PROGRAM=BeamAdjust 1.2
		MEAS_DATE=07-Oct-2010 14:04:22
		LINAC=A4
		MODALITY=X
		INPLANE_AXIS_DIR=TARGET_GUN
		CROSSPLANE_AXIS_DIR=LEFT_RIGHT
		DEPTH_AXIS_DIR=UP_DOWN
		ENERGY=6.00
		SSD=950.00
		WEDGE=None
		FIELD_INPLANE=100.00
		FIELD_CROSSPLANE=100.00
		FIELD_TYPE=RECTANGULAR
		GANTRY=0.00
		GANTRY_UPRIGHT_POSITION=0
		GANTRY_ROTATION=CW
		COLL_ANGLE=90.00
		COLL_OFFSET_INPLANE=0.00
		COLL_OFFSET_CROSSPLANE=0.00
		SCAN_DEVICE=STARCHECK
		ELECTROMETER=2D_ARRAY_INTERFACE
		DETECTOR=STARCHECK
		SCAN_CURVETYPE=CROSSPLANE_PROFILE
		SCAN_DEPTH=0.00
		SCAN_OFFAXIS_INPLANE=0.00
		SCAN_ANGLE=0.00
		SCAN_DIAGONAL=NOT_DIAGONAL
		MEAS_PRESET=TIME_PRESET
		MEAS_TIME=10.000
		MEAS_UNIT=GY
		PRESSURE=1013.25
		TEMPERATURE=20.00
		NORM_TEMPERATURE=20.00
		CORRECTION_FACTOR=1.0000
		CORRECTIONS=AIR_DENSITY_CORR;
		BEGIN_DATA
			-126.00		7.5139E-03
			-123.00		8.3896E-03
			-120.00		8.9644E-03
			-117.00		10.692E-03
			-114.00		10.341E-03
			-111.00		11.188E-03
			-108.00		12.153E-03
			-105.00		12.532E-03
			-102.00		13.584E-03
			-99.00		15.332E-03
			-96.00		16.352E-03
			-93.00		18.349E-03
			-90.00		19.716E-03
			-87.00		21.687E-03
			-84.00		24.588E-03
			-81.00		26.630E-03
			-78.00		29.584E-03
			-75.00		34.399E-03
			-72.00		38.191E-03
			-69.00		44.682E-03
			-66.00		53.361E-03
			-63.00		68.657E-03
			-60.00		102.41E-03
			-57.00		231.91E-03
			-54.00		521.58E-03
			-51.00		613.09E-03
			-48.00		637.91E-03
			-45.00		645.49E-03
			-42.00		650.28E-03
			-39.00		657.33E-03
			-36.00		660.96E-03
			-33.00		660.49E-03
			-30.00		659.80E-03
			-27.00		662.25E-03
			-24.00		665.06E-03
			-21.00		665.69E-03
			-18.00		670.89E-03
			-15.00		668.95E-03
			-12.00		667.00E-03
			-9.00		669.05E-03
			-6.00		668.75E-03
			0.00		669.65E-03
			6.00		672.25E-03
			9.00		669.77E-03
			12.00		666.70E-03
			15.00		665.94E-03
			18.00		665.91E-03
			21.00		663.72E-03
			24.00		659.83E-03
			27.00		662.85E-03
			30.00		658.42E-03
			33.00		653.26E-03
			36.00		643.90E-03
			39.00		622.96E-03
			42.00		558.78E-03
			45.00		293.40E-03
			48.00		113.68E-03
			51.00		72.101E-03
			54.00		55.478E-03
			57.00		45.933E-03
			60.00		39.260E-03
			63.00		34.759E-03
			66.00		30.412E-03
			69.00		26.829E-03
			72.00		24.534E-03
			75.00		22.312E-03
			78.00		19.757E-03
			81.00		18.272E-03
			84.00		17.082E-03
			87.00		15.536E-03
			90.00		14.622E-03
			93.00		13.458E-03
			96.00		11.690E-03
			99.00		11.467E-03
			102.00		10.628E-03
			105.00		9.7398E-03
			108.00		9.5540E-03
			111.00		8.3874E-03
			114.00		8.0075E-03
			117.00		7.2377E-03
			120.00		6.7606E-03
			123.00		6.6773E-03
			126.00		6.4168E-03
		END_DATA
	END_SCAN  4
	BEGIN_SCAN  5
		TASK_NAME=MODE_INTERVAL
		PROGRAM=BeamAdjust 1.2
		MEAS_DATE=07-Oct-2010 14:04:22
		LINAC=A4
		MODALITY=X
		INPLANE_AXIS_DIR=TARGET_GUN
		CROSSPLANE_AXIS_DIR=LEFT_RIGHT
		DEPTH_AXIS_DIR=UP_DOWN
		ENERGY=6.00
		SSD=950.00
		WEDGE=None
		FIELD_INPLANE=100.00
		FIELD_CROSSPLANE=100.00
		FIELD_TYPE=RECTANGULAR
		GANTRY=0.00
		GANTRY_UPRIGHT_POSITION=0
		GANTRY_ROTATION=CW
		COLL_ANGLE=90.00
		COLL_OFFSET_INPLANE=0.00
		COLL_OFFSET_CROSSPLANE=0.00
		SCAN_DEVICE=STARCHECK
		ELECTROMETER=2D_ARRAY_INTERFACE
		DETECTOR=STARCHECK
		SCAN_CURVETYPE=CROSSPLANE_PROFILE
		SCAN_DEPTH=0.00
		SCAN_OFFAXIS_INPLANE=50.00
		SCAN_ANGLE=0.00
		SCAN_DIAGONAL=NOT_DIAGONAL
		MEAS_PRESET=TIME_PRESET
		MEAS_TIME=10.000
		MEAS_UNIT=GY
		PRESSURE=1013.25
		TEMPERATURE=20.00
		NORM_TEMPERATURE=20.00
		CORRECTION_FACTOR=1.0000
		CORRECTIONS=AIR_DENSITY_CORR;
		BEGIN_DATA
			-30.00		268.93E-03
			-15.00		285.34E-03
			15.00		265.82E-03
			30.00		245.08E-03
		END_DATA
	END_SCAN  5
	BEGIN_SCAN  6
		TASK_NAME=MODE_INTERVAL
		PROGRAM=BeamAdjust 1.2
		MEAS_DATE=07-Oct-2010 14:04:22
		LINAC=A4
		MODALITY=X
		INPLANE_AXIS_DIR=TARGET_GUN
		CROSSPLANE_AXIS_DIR=LEFT_RIGHT
		DEPTH_AXIS_DIR=UP_DOWN
		ENERGY=6.00
		SSD=950.00
		WEDGE=None
		FIELD_INPLANE=100.00
		FIELD_CROSSPLANE=100.00
		FIELD_TYPE=RECTANGULAR
		GANTRY=0.00
		GANTRY_UPRIGHT_POSITION=0
		GANTRY_ROTATION=CW
		COLL_ANGLE=90.00
		COLL_OFFSET_INPLANE=0.00
		COLL_OFFSET_CROSSPLANE=0.00
		SCAN_DEVICE=STARCHECK
		ELECTROMETER=2D_ARRAY_INTERFACE
		DETECTOR=STARCHECK
		SCAN_CURVETYPE=CROSSPLANE_PROFILE
		SCAN_DEPTH=0.00
		SCAN_OFFAXIS_INPLANE=100.00
		SCAN_ANGLE=0.00
		SCAN_DIAGONAL=NOT_DIAGONAL
		MEAS_PRESET=TIME_PRESET
		MEAS_TIME=10.000
		MEAS_UNIT=GY
		PRESSURE=1013.25
		TEMPERATURE=20.00
		NORM_TEMPERATURE=20.00
		CORRECTION_FACTOR=1.0000
		CORRECTIONS=AIR_DENSITY_CORR;
		BEGIN_DATA
			-60.00		11.274E-03
			-30.00		15.313E-03
			30.00		14.452E-03
			60.00		8.3178E-03
		END_DATA
	END_SCAN  6
	BEGIN_SCAN  7
		TASK_NAME=MODE_INTERVAL
		PROGRAM=BeamAdjust 1.2
		MEAS_DATE=07-Oct-2010 14:04:22
		LINAC=A4
		MODALITY=X
		INPLANE_AXIS_DIR=TARGET_GUN
		CROSSPLANE_AXIS_DIR=LEFT_RIGHT
		DEPTH_AXIS_DIR=UP_DOWN
		ENERGY=6.00
		SSD=950.00
		WEDGE=None
		FIELD_INPLANE=100.00
		FIELD_CROSSPLANE=100.00
		FIELD_TYPE=RECTANGULAR
		GANTRY=0.00
		GANTRY_UPRIGHT_POSITION=0
		GANTRY_ROTATION=CW
		COLL_ANGLE=90.00
		COLL_OFFSET_INPLANE=0.00
		COLL_OFFSET_CROSSPLANE=0.00
		SCAN_DEVICE=STARCHECK
		ELECTROMETER=2D_ARRAY_INTERFACE
		DETECTOR=STARCHECK
		SCAN_CURVETYPE=CROSSPLANE_PROFILE
		SCAN_DEPTH=0.00
		SCAN_OFFAXIS_INPLANE=130.00
		SCAN_ANGLE=0.00
		SCAN_DIAGONAL=NOT_DIAGONAL
		MEAS_PRESET=TIME_PRESET
		MEAS_TIME=10.000
		MEAS_UNIT=GY
		PRESSURE=1013.25
		TEMPERATURE=20.00
		NORM_TEMPERATURE=20.00
		CORRECTION_FACTOR=1.0000
		CORRECTIONS=AIR_DENSITY_CORR;
		BEGIN_DATA
			-130.00		2.1737E-03
			-80.00		4.8007E-03
			-40.00		7.9930E-03
			40.00		6.5118E-03
			80.00		4.3437E-03
			130.00		2.1185E-03
		END_DATA
	END_SCAN  7
	BEGIN_SCAN  8
		TASK_NAME=MODE_INTERVAL
		PROGRAM=BeamAdjust 1.2
		MEAS_DATE=07-Oct-2010 14:04:22
		LINAC=A4
		MODALITY=X
		INPLANE_AXIS_DIR=TARGET_GUN
		CROSSPLANE_AXIS_DIR=LEFT_RIGHT
		DEPTH_AXIS_DIR=UP_DOWN
		ENERGY=6.00
		SSD=950.00
		WEDGE=None
		FIELD_INPLANE=100.00
		FIELD_CROSSPLANE=100.00
		FIELD_TYPE=RECTANGULAR
		GANTRY=0.00
		GANTRY_UPRIGHT_POSITION=0
		GANTRY_ROTATION=CW
		COLL_ANGLE=90.00
		COLL_OFFSET_INPLANE=0.00
		COLL_OFFSET_CROSSPLANE=0.00
		SCAN_DEVICE=STARCHECK
		ELECTROMETER=2D_ARRAY_INTERFACE
		DETECTOR=STARCHECK
		SCAN_CURVETYPE=INPLANE_PROFILE
		SCAN_DEPTH=0.00
		SCAN_OFFAXIS_CROSSPLANE=-130.00
		SCAN_ANGLE=0.00
		SCAN_DIAGONAL=NOT_DIAGONAL
		MEAS_PRESET=TIME_PRESET
		MEAS_TIME=10.000
		MEAS_UNIT=GY
		PRESSURE=1013.25
		TEMPERATURE=20.00
		NORM_TEMPERATURE=20.00
		CORRECTION_FACTOR=1.0000
		CORRECTIONS=AIR_DENSITY_CORR;
		BEGIN_DATA
			-130.00		2.7258E-03
			-125.00		2.5884E-03
			-120.00		3.2297E-03
			-115.00		3.5639E-03
			-110.00		3.7708E-03
			-105.00		3.6291E-03
			-100.00		4.1432E-03
			-95.00		4.7229E-03
			-90.00		5.2017E-03
			-85.00		4.7401E-03
			-80.00		4.7845E-03
			-75.00		5.3064E-03
			-70.00		5.6918E-03
			-65.00		5.7254E-03
			-60.00		5.6697E-03
			-55.00		6.5207E-03
			-50.00		5.1134E-03
			-45.00		5.4746E-03
			-40.00		5.4174E-03
			-35.00		5.9439E-03
			-30.00		6.1040E-03
			-25.00		5.9810E-03
			-20.00		5.7491E-03
			-15.00		6.0123E-03
			-10.00		5.9737E-03
			-5.00		6.8012E-03
			0.00		7.4166E-03
			5.00		7.1411E-03
			10.00		6.2848E-03
			15.00		6.4055E-03
			20.00		6.5492E-03
			25.00		5.7356E-03
			30.00		6.0291E-03
			35.00		6.1633E-03
			40.00		5.4706E-03
			45.00		5.1406E-03
			50.00		5.9280E-03
			55.00		4.9223E-03
			60.00		5.0229E-03
			65.00		4.5745E-03
			70.00		4.7799E-03
			75.00		4.3716E-03
			80.00		4.2445E-03
			85.00		3.8950E-03
			90.00		3.4446E-03
			95.00		3.8040E-03
			100.00		3.4164E-03
			105.00		2.4397E-03
			110.00		3.0883E-03
			115.00		2.5951E-03
			120.00		2.4739E-03
			125.00		2.6451E-03
			130.00		2.1737E-03
		END_DATA
	END_SCAN  8
	BEGIN_SCAN  9
		TASK_NAME=MODE_INTERVAL
		PROGRAM=BeamAdjust 1.2
		MEAS_DATE=07-Oct-2010 14:04:22
		LINAC=A4
		MODALITY=X
		INPLANE_AXIS_DIR=TARGET_GUN
		CROSSPLANE_AXIS_DIR=LEFT_RIGHT
		DEPTH_AXIS_DIR=UP_DOWN
		ENERGY=6.00
		SSD=950.00
		WEDGE=None
		FIELD_INPLANE=100.00
		FIELD_CROSSPLANE=100.00
		FIELD_TYPE=RECTANGULAR
		GANTRY=0.00
		GANTRY_UPRIGHT_POSITION=0
		GANTRY_ROTATION=CW
		COLL_ANGLE=90.00
		COLL_OFFSET_INPLANE=0.00
		COLL_OFFSET_CROSSPLANE=0.00
		SCAN_DEVICE=STARCHECK
		ELECTROMETER=2D_ARRAY_INTERFACE
		DETECTOR=STARCHECK
		SCAN_CURVETYPE=INPLANE_PROFILE
		SCAN_DEPTH=0.00
		SCAN_OFFAXIS_CROSSPLANE=-100.00
		SCAN_ANGLE=0.00
		SCAN_DIAGONAL=NOT_DIAGONAL
		MEAS_PRESET=TIME_PRESET
		MEAS_TIME=10.000
		MEAS_UNIT=GY
		PRESSURE=1013.25
		TEMPERATURE=20.00
		NORM_TEMPERATURE=20.00
		CORRECTION_FACTOR=1.0000
		CORRECTIONS=AIR_DENSITY_CORR;
		BEGIN_DATA
			-60.00		9.5662E-03
			-30.00		12.799E-03
			30.00		12.036E-03
			60.00		8.9526E-03
		END_DATA
	END_SCAN  9
	BEGIN_SCAN  10
		TASK_NAME=MODE_INTERVAL
		PROGRAM=BeamAdjust 1.2
		MEAS_DATE=07-Oct-2010 14:04:22
		LINAC=A4
		MODALITY=X
		INPLANE_AXIS_DIR=TARGET_GUN
		CROSSPLANE_AXIS_DIR=LEFT_RIGHT
		DEPTH_AXIS_DIR=UP_DOWN
		ENERGY=6.00
		SSD=950.00
		WEDGE=None
		FIELD_INPLANE=100.00
		FIELD_CROSSPLANE=100.00
		FIELD_TYPE=RECTANGULAR
		GANTRY=0.00
		GANTRY_UPRIGHT_POSITION=0
		GANTRY_ROTATION=CW
		COLL_ANGLE=90.00
		COLL_OFFSET_INPLANE=0.00
		COLL_OFFSET_CROSSPLANE=0.00
		SCAN_DEVICE=STARCHECK
		ELECTROMETER=2D_ARRAY_INTERFACE
		DETECTOR=STARCHECK
		SCAN_CURVETYPE=INPLANE_PROFILE
		SCAN_DEPTH=0.00
		SCAN_OFFAXIS_CROSSPLANE=-50.00
		SCAN_ANGLE=0.00
		SCAN_DIAGONAL=NOT_DIAGONAL
		MEAS_PRESET=TIME_PRESET
		MEAS_TIME=10.000
		MEAS_UNIT=GY
		PRESSURE=1013.25
		TEMPERATURE=20.00
		NORM_TEMPERATURE=20.00
		CORRECTION_FACTOR=1.0000
		CORRECTIONS=AIR_DENSITY_CORR;
		BEGIN_DATA
			-30.00		636.78E-03
			-15.00		638.39E-03
			15.00		638.63E-03
			30.00		632.56E-03
		END_DATA
	END_SCAN  10
	BEGIN_SCAN  11
		TASK_NAME=MODE_INTERVAL
		PROGRAM=BeamAdjust 1.2
		MEAS_DATE=07-Oct-2010 14:04:22
		LINAC=A4
		MODALITY=X
		INPLANE_AXIS_DIR=TARGET_GUN
		CROSSPLANE_AXIS_DIR=LEFT_RIGHT
		DEPTH_AXIS_DIR=UP_DOWN
		ENERGY=6.00
		SSD=950.00
		WEDGE=None
		FIELD_INPLANE=100.00
		FIELD_CROSSPLANE=100.00
		FIELD_TYPE=RECTANGULAR
		GANTRY=0.00
		GANTRY_UPRIGHT_POSITION=0
		GANTRY_ROTATION=CW
		COLL_ANGLE=90.00
		COLL_OFFSET_INPLANE=0.00
		COLL_OFFSET_CROSSPLANE=0.00
		SCAN_DEVICE=STARCHECK
		ELECTROMETER=2D_ARRAY_INTERFACE
		DETECTOR=STARCHECK
		SCAN_CURVETYPE=INPLANE_PROFILE
		SCAN_DEPTH=0.00
		SCAN_OFFAXIS_CROSSPLANE=0.00
		SCAN_ANGLE=0.00
		SCAN_DIAGONAL=NOT_DIAGONAL
		MEAS_PRESET=TIME_PRESET
		MEAS_TIME=10.000
		MEAS_UNIT=GY
		PRESSURE=1013.25
		TEMPERATURE=20.00
		NORM_TEMPERATURE=20.00
		CORRECTION_FACTOR=1.0000
		CORRECTIONS=AIR_DENSITY_CORR;
		BEGIN_DATA
			-126.00		9.1790E-03
			-123.00		8.9180E-03
			-120.00		10.506E-03
			-117.00		11.429E-03
			-114.00		11.973E-03
			-111.00		12.588E-03
			-108.00		13.435E-03
			-105.00		14.562E-03
			-102.00		16.163E-03
			-99.00		16.823E-03
			-96.00		18.182E-03
			-93.00		20.400E-03
			-90.00		21.878E-03
			-87.00		23.670E-03
			-84.00		25.715E-03
			-81.00		28.112E-03
			-78.00		31.027E-03
			-75.00		33.511E-03
			-72.00		36.569E-03
			-69.00		40.501E-03
			-66.00		45.729E-03
			-63.00		52.183E-03
			-60.00		62.240E-03
			-57.00		81.689E-03
			-54.00		130.55E-03
			-51.00		292.83E-03
			-48.00		549.68E-03
			-45.00		622.01E-03
			-42.00		643.45E-03
			-39.00		652.59E-03
			-36.00		657.81E-03
			-33.00		662.03E-03
			-30.00		665.61E-03
			-27.00		666.55E-03
			-24.00		665.96E-03
			-21.00		665.18E-03
			-18.00		670.93E-03
			-15.00		669.74E-03
			-12.00		671.52E-03
			-9.00		671.84E-03
			-6.00		669.53E-03
			0.00		669.65E-03
			6.00		673.48E-03
			9.00		671.97E-03
			12.00		670.98E-03
			15.00		669.48E-03
			18.00		665.70E-03
			21.00		665.07E-03
			24.00		661.97E-03
			27.00		663.09E-03
			30.00		658.80E-03
			33.00		657.17E-03
			36.00		654.72E-03
			39.00		643.45E-03
			42.00		631.91E-03
			45.00		598.72E-03
			48.00		439.85E-03
			51.00		192.86E-03
			54.00		99.824E-03
			57.00		70.081E-03
			60.00		57.379E-03
			63.00		49.048E-03
			66.00		43.421E-03
			69.00		38.639E-03
			72.00		35.341E-03
			75.00		31.562E-03
			78.00		28.197E-03
			81.00		26.272E-03
			84.00		24.190E-03
			87.00		22.252E-03
			90.00		21.298E-03
			93.00		19.415E-03
			96.00		17.750E-03
			99.00		16.739E-03
			102.00		15.547E-03
			105.00		13.984E-03
			108.00		13.838E-03
			111.00		12.522E-03
			114.00		11.754E-03
			117.00		10.896E-03
			120.00		10.287E-03
			123.00		9.1959E-03
			126.00		8.5478E-03
		END_DATA
	END_SCAN  11
	BEGIN_SCAN  12
		TASK_NAME=MODE_INTERVAL
		PROGRAM=BeamAdjust 1.2
		MEAS_DATE=07-Oct-2010 14:04:22
		LINAC=A4
		MODALITY=X
		INPLANE_AXIS_DIR=TARGET_GUN
		CROSSPLANE_AXIS_DIR=LEFT_RIGHT
		DEPTH_AXIS_DIR=UP_DOWN
		ENERGY=6.00
		SSD=950.00
		WEDGE=None
		FIELD_INPLANE=100.00
		FIELD_CROSSPLANE=100.00
		FIELD_TYPE=RECTANGULAR
		GANTRY=0.00
		GANTRY_UPRIGHT_POSITION=0
		GANTRY_ROTATION=CW
		COLL_ANGLE=90.00
		COLL_OFFSET_INPLANE=0.00
		COLL_OFFSET_CROSSPLANE=0.00
		SCAN_DEVICE=STARCHECK
		ELECTROMETER=2D_ARRAY_INTERFACE
		DETECTOR=STARCHECK
		SCAN_CURVETYPE=INPLANE_PROFILE
		SCAN_DEPTH=0.00
		SCAN_OFFAXIS_CROSSPLANE=50.00
		SCAN_ANGLE=0.00
		SCAN_DIAGONAL=NOT_DIAGONAL
		MEAS_PRESET=TIME_PRESET
		MEAS_TIME=10.000
		MEAS_UNIT=GY
		PRESSURE=1013.25
		TEMPERATURE=20.00
		NORM_TEMPERATURE=20.00
		CORRECTION_FACTOR=1.0000
		CORRECTIONS=AIR_DENSITY_CORR;
		BEGIN_DATA
			-30.00		64.053E-03
			-15.00		69.082E-03
			15.00		69.662E-03
			30.00		66.093E-03
		END_DATA
	END_SCAN  12
	BEGIN_SCAN  13
		TASK_NAME=MODE_INTERVAL
		PROGRAM=BeamAdjust 1.2
		MEAS_DATE=07-Oct-2010 14:04:22
		LINAC=A4
		MODALITY=X
		INPLANE_AXIS_DIR=TARGET_GUN
		CROSSPLANE_AXIS_DIR=LEFT_RIGHT
		DEPTH_AXIS_DIR=UP_DOWN
		ENERGY=6.00
		SSD=950.00
		WEDGE=None
		FIELD_INPLANE=100.00
		FIELD_CROSSPLANE=100.00
		FIELD_TYPE=RECTANGULAR
		GANTRY=0.00
		GANTRY_UPRIGHT_POSITION=0
		GANTRY_ROTATION=CW
		COLL_ANGLE=90.00
		COLL_OFFSET_INPLANE=0.00
		COLL_OFFSET_CROSSPLANE=0.00
		SCAN_DEVICE=STARCHECK
		ELECTROMETER=2D_ARRAY_INTERFACE
		DETECTOR=STARCHECK
		SCAN_CURVETYPE=INPLANE_PROFILE
		SCAN_DEPTH=0.00
		SCAN_OFFAXIS_CROSSPLANE=100.00
		SCAN_ANGLE=0.00
		SCAN_DIAGONAL=NOT_DIAGONAL
		MEAS_PRESET=TIME_PRESET
		MEAS_TIME=10.000
		MEAS_UNIT=GY
		PRESSURE=1013.25
		TEMPERATURE=20.00
		NORM_TEMPERATURE=20.00
		CORRECTION_FACTOR=1.0000
		CORRECTIONS=AIR_DENSITY_CORR;
		BEGIN_DATA
			-60.00		7.0579E-03
			-30.00		9.2276E-03
			30.00		9.3359E-03
			60.00		6.6605E-03
		END_DATA
	END_SCAN  13
	BEGIN_SCAN  14
		TASK_NAME=MODE_INTERVAL
		PROGRAM=BeamAdjust 1.2
		MEAS_DATE=07-Oct-2010 14:04:22
		LINAC=A4
		MODALITY=X
		INPLANE_AXIS_DIR=TARGET_GUN
		CROSSPLANE_AXIS_DIR=LEFT_RIGHT
		DEPTH_AXIS_DIR=UP_DOWN
		ENERGY=6.00
		SSD=950.00
		WEDGE=None
		FIELD_INPLANE=100.00
		FIELD_CROSSPLANE=100.00
		FIELD_TYPE=RECTANGULAR
		GANTRY=0.00
		GANTRY_UPRIGHT_POSITION=0
		GANTRY_ROTATION=CW
		COLL_ANGLE=90.00
		COLL_OFFSET_INPLANE=0.00
		COLL_OFFSET_CROSSPLANE=0.00
		SCAN_DEVICE=STARCHECK
		ELECTROMETER=2D_ARRAY_INTERFACE
		DETECTOR=STARCHECK
		SCAN_CURVETYPE=INPLANE_PROFILE
		SCAN_DEPTH=0.00
		SCAN_OFFAXIS_CROSSPLANE=130.00
		SCAN_ANGLE=0.00
		SCAN_DIAGONAL=NOT_DIAGONAL
		MEAS_PRESET=TIME_PRESET
		MEAS_TIME=10.000
		MEAS_UNIT=GY
		PRESSURE=1013.25
		TEMPERATURE=20.00
		NORM_TEMPERATURE=20.00
		CORRECTION_FACTOR=1.0000
		CORRECTIONS=AIR_DENSITY_CORR;
		BEGIN_DATA
			-130.00		1.9135E-03
			-125.00		2.8995E-03
			-120.00		2.2320E-03
			-115.00		2.3610E-03
			-110.00		2.4795E-03
			-105.00		2.6925E-03
			-100.00		2.4607E-03
			-95.00		2.5978E-03
			-90.00		2.7339E-03
			-85.00		3.5689E-03
			-80.00		3.2757E-03
			-75.00		3.3706E-03
			-70.00		3.7908E-03
			-65.00		3.4964E-03
			-60.00		4.5254E-03
			-55.00		4.1465E-03
			-50.00		3.8869E-03
			-45.00		4.5718E-03
			-40.00		4.5153E-03
			-35.00		4.5525E-03
			-30.00		5.0929E-03
			-25.00		4.8481E-03
			-20.00		4.7311E-03
			-15.00		4.7213E-03
			-10.00		4.3994E-03
			-5.00		5.1759E-03
			0.00		5.4894E-03
			5.00		4.9965E-03
			10.00		5.6146E-03
			15.00		4.8005E-03
			20.00		5.1751E-03
			25.00		4.8193E-03
			30.00		4.4742E-03
			35.00		4.7860E-03
			40.00		5.0855E-03
			45.00		4.6031E-03
			50.00		4.5169E-03
			55.00		4.8285E-03
			60.00		4.3966E-03
			65.00		3.4568E-03
			70.00		3.6386E-03
			75.00		3.6787E-03
			80.00		4.3584E-03
			85.00		3.2458E-03
			90.00		2.9878E-03
			95.00		3.0342E-03
			100.00		3.2556E-03
			105.00		2.3951E-03
			110.00		2.4506E-03
			115.00		2.5973E-03
			120.00		2.7566E-03
			125.00		2.1577E-03
			130.00		2.1185E-03
		END_DATA
	END_SCAN  14
	BEGIN_SCAN  15
		TASK_NAME=MODE_INTERVAL
		PROGRAM=BeamAdjust 1.2
		MEAS_DATE=07-Oct-2010 14:04:22
		LINAC=A4
		MODALITY=X
		INPLANE_AXIS_DIR=TARGET_GUN
		CROSSPLANE_AXIS_DIR=LEFT_RIGHT
		DEPTH_AXIS_DIR=UP_DOWN
		ENERGY=6.00
		SSD=950.00
		WEDGE=None
		FIELD_INPLANE=100.00
		FIELD_CROSSPLANE=100.00
		FIELD_TYPE=RECTANGULAR
		GANTRY=0.00
		GANTRY_UPRIGHT_POSITION=0
		GANTRY_ROTATION=CW
		COLL_ANGLE=90.00
		COLL_OFFSET_INPLANE=0.00
		COLL_OFFSET_CROSSPLANE=0.00
		SCAN_DEVICE=STARCHECK
		ELECTROMETER=2D_ARRAY_INTERFACE
		DETECTOR=STARCHECK
		SCAN_CURVETYPE=INPLANE_PROFILE
		SCAN_DEPTH=0.00
		SCAN_OFFAXIS_CROSSPLANE=0.00
		SCAN_ANGLE=0.00
		SCAN_DIAGONAL=FIRST_DIAGONAL
		MEAS_PRESET=TIME_PRESET
		MEAS_TIME=10.000
		MEAS_UNIT=GY
		PRESSURE=1013.25
		TEMPERATURE=20.00
		NORM_TEMPERATURE=20.00
		CORRECTION_FACTOR=1.0000
		CORRECTIONS=AIR_DENSITY_CORR;
		BEGIN_DATA
			-172.40		3.0034E-03
			-169.40		3.2872E-03
			-166.40		4.0042E-03
			-163.40		3.8480E-03
			-160.40		4.7919E-03
			-157.40		4.6980E-03
			-154.40		4.4636E-03
			-151.40		4.1977E-03
			-148.40		5.5113E-03
			-145.40		5.9685E-03
			-142.40		5.9713E-03
			-139.40		6.3150E-03
			-136.40		6.6484E-03
			-133.40		7.7470E-03
			-130.40		8.1902E-03
			-127.40		8.3837E-03
			-124.40		8.9515E-03
			-121.40		10.165E-03
			-118.40		11.792E-03
			-115.40		11.816E-03
			-112.40		12.971E-03
			-109.40		14.580E-03
			-106.40		15.704E-03
			-103.40		16.430E-03
			-100.40		18.027E-03
			-97.40		20.817E-03
			-94.40		23.065E-03
			-91.40		25.970E-03
			-88.40		29.736E-03
			-85.40		34.178E-03
			-82.40		42.004E-03
			-79.40		56.598E-03
			-76.40		100.32E-03
			-73.40		222.70E-03
			-70.40		384.18E-03
			-67.40		517.76E-03
			-64.40		592.12E-03
			-61.40		621.57E-03
			-58.40		635.05E-03
			-55.40		643.41E-03
			-52.40		648.81E-03
			-49.40		652.91E-03
			-46.40		654.91E-03
			-43.40		656.96E-03
			-40.40		659.15E-03
			-37.40		663.76E-03
			-34.40		663.80E-03
			-31.40		664.59E-03
			-28.40		662.70E-03
			-25.40		665.56E-03
			-22.40		666.92E-03
			-19.40		667.95E-03
			-16.40		670.52E-03
			-13.40		671.62E-03
			0.00		669.65E-03
			13.40		671.00E-03
			16.40		667.51E-03
			19.40		667.22E-03
			22.40		666.06E-03
			25.40		664.65E-03
			28.40		663.36E-03
			31.40		661.03E-03
			34.40		656.78E-03
			37.40		658.71E-03
			40.40		655.38E-03
			43.40		651.41E-03
			46.40		647.45E-03
			49.40		638.04E-03
			52.40		627.06E-03
			55.40		598.84E-03
			58.40		535.95E-03
			61.40		398.22E-03
			64.40		214.34E-03
			67.40		89.584E-03
			70.40		52.389E-03
			73.40		39.768E-03
			76.40		32.433E-03
			79.40		28.366E-03
			82.40		25.192E-03
			85.40		21.857E-03
			88.40		20.158E-03
			91.40		18.240E-03
			94.40		16.652E-03
			97.40		15.024E-03
			100.40		13.441E-03
			103.40		12.948E-03
			106.40		11.881E-03
			109.40		10.755E-03
			112.40		9.1842E-03
			115.40		9.2241E-03
			118.40		8.1685E-03
			121.40		7.9270E-03
			124.40		6.8006E-03
			127.40		6.6855E-03
			130.40		6.5966E-03
			133.40		5.8819E-03
			136.40		4.7606E-03
			139.40		4.7562E-03
			142.40		4.4961E-03
			145.40		4.5380E-03
			148.40		4.3914E-03
			151.40		3.4897E-03
			154.40		3.8690E-03
			157.40		3.9320E-03
			160.40		2.8138E-03
			163.40		2.5679E-03
			166.40		2.7799E-03
			169.40		2.6697E-03
			172.40		2.7474E-03
		END_DATA
	END_SCAN  15
	BEGIN_SCAN  16
		TASK_NAME=MODE_INTERVAL
		PROGRAM=BeamAdjust 1.2
		MEAS_DATE=07-Oct-2010 14:04:22
		LINAC=A4
		MODALITY=X
		INPLANE_AXIS_DIR=GUN_TARGET
		CROSSPLANE_AXIS_DIR=LEFT_RIGHT
		DEPTH_AXIS_DIR=UP_DOWN
		ENERGY=6.00
		SSD=950.00
		WEDGE=None
		FIELD_INPLANE=100.00
		FIELD_CROSSPLANE=100.00
		FIELD_TYPE=RECTANGULAR
		GANTRY=0.00
		GANTRY_UPRIGHT_POSITION=0
		GANTRY_ROTATION=CW
		COLL_ANGLE=90.00
		COLL_OFFSET_INPLANE=0.00
		COLL_OFFSET_CROSSPLANE=0.00
		SCAN_DEVICE=STARCHECK
		ELECTROMETER=2D_ARRAY_INTERFACE
		DETECTOR=STARCHECK
		SCAN_CURVETYPE=INPLANE_PROFILE
		SCAN_DEPTH=0.00
		SCAN_OFFAXIS_CROSSPLANE=0.00
		SCAN_ANGLE=0.00
		SCAN_DIAGONAL=SECOND_DIAGONAL
		MEAS_PRESET=TIME_PRESET
		MEAS_TIME=10.000
		MEAS_UNIT=GY
		PRESSURE=1013.25
		TEMPERATURE=20.00
		NORM_TEMPERATURE=20.00
		CORRECTION_FACTOR=1.0000
		CORRECTIONS=AIR_DENSITY_CORR;
		BEGIN_DATA
			-172.40		2.6481E-03
			-169.40		2.9853E-03
			-166.40		2.4450E-03
			-163.40		2.9407E-03
			-160.40		3.1942E-03
			-157.40		3.2855E-03
			-154.40		3.8358E-03
			-151.40		4.0187E-03
			-148.40		4.2927E-03
			-145.40		4.3248E-03
			-142.40		5.1675E-03
			-139.40		5.0574E-03
			-136.40		5.2382E-03
			-133.40		6.3553E-03
			-130.40		6.2663E-03
			-127.40		6.8641E-03
			-124.40		7.8798E-03
			-121.40		8.0467E-03
			-118.40		8.5942E-03
			-115.40		9.0138E-03
			-112.40		9.7053E-03
			-109.40		10.496E-03
			-106.40		12.106E-03
			-103.40		12.679E-03
			-100.40		14.152E-03
			-97.40		15.376E-03
			-94.40		16.800E-03
			-91.40		18.119E-03
			-88.40		19.921E-03
			-85.40		22.100E-03
			-82.40		25.009E-03
			-79.40		28.700E-03
			-76.40		33.294E-03
			-73.40		40.966E-03
			-70.40		55.809E-03
			-67.40		98.039E-03
			-64.40		227.00E-03
			-61.40		392.77E-03
			-58.40		534.29E-03
			-55.40		602.68E-03
			-52.40		631.88E-03
			-49.40		643.66E-03
			-46.40		650.70E-03
			-43.40		655.71E-03
			-40.40		658.62E-03
			-37.40		662.48E-03
			-34.40		663.06E-03
			-31.40		664.94E-03
			-28.40		667.60E-03
			-25.40		666.70E-03
			-22.40		665.46E-03
			-19.40		667.98E-03
			-16.40		668.81E-03
			-13.40		671.60E-03
			0.00		669.65E-03
			13.40		673.85E-03
			16.40		671.40E-03
			19.40		667.60E-03
			22.40		663.96E-03
			25.40		663.47E-03
			28.40		663.19E-03
			31.40		662.00E-03
			34.40		659.33E-03
			37.40		658.98E-03
			40.40		657.83E-03
			43.40		656.50E-03
			46.40		654.35E-03
			49.40		650.94E-03
			52.40		643.44E-03
			55.40		636.78E-03
			58.40		628.20E-03
			61.40		604.91E-03
			64.40		546.52E-03
			67.40		432.42E-03
			70.40		278.86E-03
			73.40		142.93E-03
			76.40		72.560E-03
			79.40		47.901E-03
			82.40		38.305E-03
			85.40		32.916E-03
			88.40		28.171E-03
			91.40		25.414E-03
			94.40		22.761E-03
			97.40		20.535E-03
			100.40		17.709E-03
			103.40		15.888E-03
			106.40		14.943E-03
			109.40		13.927E-03
			112.40		12.494E-03
			115.40		11.792E-03
			118.40		10.625E-03
			121.40		9.6001E-03
			124.40		8.7945E-03
			127.40		8.6294E-03
			130.40		8.0923E-03
			133.40		7.2715E-03
			136.40		6.6004E-03
			139.40		6.8213E-03
			142.40		5.6743E-03
			145.40		6.1202E-03
			148.40		5.3357E-03
			151.40		4.7596E-03
			154.40		4.6055E-03
			157.40		4.2289E-03
			160.40		4.0838E-03
			163.40		4.2729E-03
			166.40		3.8787E-03
			169.40		3.6597E-03
			172.40		2.6543E-03
		END_DATA
	END_SCAN  16
END_SCAN_DATA
