BEGIN_SCAN_DATA
	FORMAT=CC-Export V1.9                  
	FILE_CREATION_DATE=07-Oct-2010 14:04:49
	LAST_MODIFIED=07-Oct-2010 14:04:49
	BEGIN_SCAN  1
		TASK_NAME=MODE_INTERVAL
		PROGRAM=BeamAdjust 1.2
		MEAS_DATE=07-Oct-2010 14:04:49
		LINAC=A4
		MODALITY=X
		INPLANE_AXIS_DIR=TARGET_GUN
		CROSSPLANE_AXIS_DIR=LEFT_RIGHT
		DEPTH_AXIS_DIR=UP_DOWN
		ENERGY=6.00
		SSD=950.00
		WEDGE=None
		FIELD_INPLANE=100.00
		FIELD_CROSSPLANE=100.00
		FIELD_TYPE=RECTANGULAR
		GANTRY=0.00
		GANTRY_UPRIGHT_POSITION=0
		GANTRY_ROTATION=CW
		COLL_ANGLE=90.00
		COLL_OFFSET_INPLANE=0.00
		COLL_OFFSET_CROSSPLANE=0.00
		SCAN_DEVICE=STARCHECK
		ELECTROMETER=2D_ARRAY_INTERFACE
		DETECTOR=STARCHECK
		SCAN_CURVETYPE=CROSSPLANE_PROFILE
		SCAN_DEPTH=0.00
		SCAN_OFFAXIS_INPLANE=-130.00
		SCAN_ANGLE=0.00
		SCAN_DIAGONAL=NOT_DIAGONAL
		MEAS_PRESET=TIME_PRESET
		MEAS_TIME=10.000
		MEAS_UNIT=GY
		PRESSURE=1013.25
		TEMPERATURE=20.00
		NORM_TEMPERATURE=20.00
		CORRECTION_FACTOR=1.0000
		CORRECTIONS=AIR_DENSITY_CORR;
		BEGIN_DATA
			-130.00		2.7258E-03
			-80.00		4.7080E-03
			-40.00		7.3448E-03
			40.00		6.5470E-03
			80.00		3.7086E-03
			130.00		1.8656E-03
		END_DATA
	END_SCAN  1
	BEGIN_SCAN  2
		TASK_NAME=MODE_INTERVAL
		PROGRAM=BeamAdjust 1.2
		MEAS_DATE=07-Oct-2010 14:04:49
		LINAC=A4
		MODALITY=X
		INPLANE_AXIS_DIR=TARGET_GUN
		CROSSPLANE_AXIS_DIR=LEFT_RIGHT
		DEPTH_AXIS_DIR=UP_DOWN
		ENERGY=6.00
		SSD=950.00
		WEDGE=None
		FIELD_INPLANE=100.00
		FIELD_CROSSPLANE=100.00
		FIELD_TYPE=RECTANGULAR
		GANTRY=0.00
		GANTRY_UPRIGHT_POSITION=0
		GANTRY_ROTATION=CW
		COLL_ANGLE=90.00
		COLL_OFFSET_INPLANE=0.00
		COLL_OFFSET_CROSSPLANE=0.00
		SCAN_DEVICE=STARCHECK
		ELECTROMETER=2D_ARRAY_INTERFACE
		DETECTOR=STARCHECK
		SCAN_CURVETYPE=CROSSPLANE_PROFILE
		SCAN_DEPTH=0.00
		SCAN_OFFAXIS_INPLANE=-100.00
		SCAN_ANGLE=0.00
		SCAN_DIAGONAL=NOT_DIAGONAL
		MEAS_PRESET=TIME_PRESET
		MEAS_TIME=10.000
		MEAS_UNIT=GY
		PRESSURE=1013.25
		TEMPERATURE=20.00
		NORM_TEMPERATURE=20.00
		CORRECTION_FACTOR=1.0000
		CORRECTIONS=AIR_DENSITY_CORR;
		BEGIN_DATA
			-60.00		11.600E-03
			-30.00		14.678E-03
			30.00		14.455E-03
			60.00		9.2021E-03
		END_DATA
	END_SCAN  2
	BEGIN_SCAN  3
		TASK_NAME=MODE_INTERVAL
		PROGRAM=BeamAdjust 1.2
		MEAS_DATE=07-Oct-2010 14:04:49
		LINAC=A4
		MODALITY=X
		INPLANE_AXIS_DIR=TARGET_GUN
		CROSSPLANE_AXIS_DIR=LEFT_RIGHT
		DEPTH_AXIS_DIR=UP_DOWN
		ENERGY=6.00
		SSD=950.00
		WEDGE=None
		FIELD_INPLANE=100.00
		FIELD_CROSSPLANE=100.00
		FIELD_TYPE=RECTANGULAR
		GANTRY=0.00
		GANTRY_UPRIGHT_POSITION=0
		GANTRY_ROTATION=CW
		COLL_ANGLE=90.00
		COLL_OFFSET_INPLANE=0.00
		COLL_OFFSET_CROSSPLANE=0.00
		SCAN_DEVICE=STARCHECK
		ELECTROMETER=2D_ARRAY_INTERFACE
		DETECTOR=STARCHECK
		SCAN_CURVETYPE=CROSSPLANE_PROFILE
		SCAN_DEPTH=0.00
		SCAN_OFFAXIS_INPLANE=-50.00
		SCAN_ANGLE=0.00
		SCAN_DIAGONAL=NOT_DIAGONAL
		MEAS_PRESET=TIME_PRESET
		MEAS_TIME=10.000
		MEAS_UNIT=GY
		PRESSURE=1013.25
		TEMPERATURE=20.00
		NORM_TEMPERATURE=20.00
		CORRECTION_FACTOR=1.0000
		CORRECTIONS=AIR_DENSITY_CORR;
		BEGIN_DATA
			-30.00		383.88E-03
			-15.00		386.40E-03
			15.00		390.07E-03
			30.00		377.90E-03
		END_DATA
	END_SCAN  3
	BEGIN_SCAN  4
		TASK_NAME=MODE_INTERVAL
		PROGRAM=BeamAdjust 1.2
		MEAS_DATE=07-Oct-2010 14:04:49
		LINAC=A4
		MODALITY=X
		INPLANE_AXIS_DIR=TARGET_GUN
		CROSSPLANE_AXIS_DIR=LEFT_RIGHT
		DEPTH_AXIS_DIR=UP_DOWN
		ENERGY=6.00
		SSD=950.00
		WEDGE=None
		FIELD_INPLANE=100.00
		FIELD_CROSSPLANE=100.00
		FIELD_TYPE=RECTANGULAR
		GANTRY=0.00
		GANTRY_UPRIGHT_POSITION=0
		GANTRY_ROTATION=CW
		COLL_ANGLE=90.00
		COLL_OFFSET_INPLANE=0.00
		COLL_OFFSET_CROSSPLANE=0.00
		SCAN_DEVICE=STARCHECK
		ELECTROMETER=2D_ARRAY_INTERFACE
		DETECTOR=STARCHECK
		SCAN_CURVETYPE=CROSSPLANE_PROFILE
		SCAN_DEPTH=0.00
		SCAN_OFFAXIS_INPLANE=0.00
		SCAN_ANGLE=0.00
		SCAN_DIAGONAL=NOT_DIAGONAL
		MEAS_PRESET=TIME_PRESET
		MEAS_TIME=10.000
		MEAS_UNIT=GY
		PRESSURE=1013.25
		TEMPERATURE=20.00
		NORM_TEMPERATURE=20.00
		CORRECTION_FACTOR=1.0000
		CORRECTIONS=AIR_DENSITY_CORR;
		BEGIN_DATA
			-126.00		7.6422E-03
			-123.00		8.3716E-03
			-120.00		9.0030E-03
			-117.00		9.6600E-03
			-114.00		11.010E-03
			-111.00		11.148E-03
			-108.00		12.157E-03
			-105.00		12.651E-03
			-102.00		14.071E-03
			-99.00		15.215E-03
			-96.00		16.709E-03
			-93.00		18.343E-03
			-90.00		19.930E-03
			-87.00		21.858E-03
			-84.00		24.575E-03
			-81.00		27.045E-03
			-78.00		30.182E-03
			-75.00		34.025E-03
			-72.00		38.890E-03
			-69.00		45.217E-03
			-66.00		55.249E-03
			-63.00		70.901E-03
			-60.00		108.64E-03
			-57.00		261.40E-03
			-54.00		540.70E-03
			-51.00		617.54E-03
			-48.00		639.95E-03
			-45.00		646.83E-03
			-42.00		651.54E-03
			-39.00		658.40E-03
			-36.00		661.60E-03
			-33.00		660.53E-03
			-30.00		661.27E-03
			-27.00		663.06E-03
			-24.00		665.87E-03
			-21.00		666.55E-03
			-18.00		671.50E-03
			-15.00		669.69E-03
			-12.00		667.48E-03
			-9.00		669.66E-03
			-6.00		669.40E-03
			0.00		669.96E-03
			6.00		673.08E-03
			9.00		670.49E-03
			12.00		667.03E-03
			15.00		665.88E-03
			18.00		666.21E-03
			21.00		664.75E-03
			24.00		660.27E-03
			27.00		662.59E-03
			30.00		659.19E-03
			33.00		653.21E-03
			36.00		642.92E-03
			39.00		620.06E-03
			42.00		544.69E-03
			45.00		262.41E-03
			48.00		107.03E-03
			51.00		69.834E-03
			54.00		54.257E-03
			57.00		44.871E-03
			60.00		38.552E-03
			63.00		34.377E-03
			66.00		30.232E-03
			69.00		26.538E-03
			72.00		24.086E-03
			75.00		22.072E-03
			78.00		19.686E-03
			81.00		17.983E-03
			84.00		16.728E-03
			87.00		15.176E-03
			90.00		14.411E-03
			93.00		13.209E-03
			96.00		11.996E-03
			99.00		11.455E-03
			102.00		10.483E-03
			105.00		9.6219E-03
			108.00		9.4152E-03
			111.00		8.1816E-03
			114.00		7.8437E-03
			117.00		7.4299E-03
			120.00		6.5856E-03
			123.00		6.3304E-03
			126.00		6.4242E-03
		END_DATA
	END_SCAN  4
	BEGIN_SCAN  5
		TASK_NAME=MODE_INTERVAL
		PROGRAM=BeamAdjust 1.2
		MEAS_DATE=07-Oct-2010 14:04:49
		LINAC=A4
		MODALITY=X
		INPLANE_AXIS_DIR=TARGET_GUN
		CROSSPLANE_AXIS_DIR=LEFT_RIGHT
		DEPTH_AXIS_DIR=UP_DOWN
		ENERGY=6.00
		SSD=950.00
		WEDGE=None
		FIELD_INPLANE=100.00
		FIELD_CROSSPLANE=100.00
		FIELD_TYPE=RECTANGULAR
		GANTRY=0.00
		GANTRY_UPRIGHT_POSITION=0
		GANTRY_ROTATION=CW
		COLL_ANGLE=90.00
		COLL_OFFSET_INPLANE=0.00
		COLL_OFFSET_CROSSPLANE=0.00
		SCAN_DEVICE=STARCHECK
		ELECTROMETER=2D_ARRAY_INTERFACE
		DETECTOR=STARCHECK
		SCAN_CURVETYPE=CROSSPLANE_PROFILE
		SCAN_DEPTH=0.00
		SCAN_OFFAXIS_INPLANE=50.00
		SCAN_ANGLE=0.00
		SCAN_DIAGONAL=NOT_DIAGONAL
		MEAS_PRESET=TIME_PRESET
		MEAS_TIME=10.000
		MEAS_UNIT=GY
		PRESSURE=1013.25
		TEMPERATURE=20.00
		NORM_TEMPERATURE=20.00
		CORRECTION_FACTOR=1.0000
		CORRECTIONS=AIR_DENSITY_CORR;
		BEGIN_DATA
			-30.00		269.06E-03
			-15.00		283.83E-03
			15.00		264.72E-03
			30.00		245.01E-03
		END_DATA
	END_SCAN  5
	BEGIN_SCAN  6
		TASK_NAME=MODE_INTERVAL
		PROGRAM=BeamAdjust 1.2
		MEAS_DATE=07-Oct-2010 14:04:49
		LINAC=A4
		MODALITY=X
		INPLANE_AXIS_DIR=TARGET_GUN
		CROSSPLANE_AXIS_DIR=LEFT_RIGHT
		DEPTH_AXIS_DIR=UP_DOWN
		ENERGY=6.00
		SSD=950.00
		WEDGE=None
		FIELD_INPLANE=100.00
		FIELD_CROSSPLANE=100.00
		FIELD_TYPE=RECTANGULAR
		GANTRY=0.00
		GANTRY_UPRIGHT_POSITION=0
		GANTRY_ROTATION=CW
		COLL_ANGLE=90.00
		COLL_OFFSET_INPLANE=0.00
		COLL_OFFSET_CROSSPLANE=0.00
		SCAN_DEVICE=STARCHECK
		ELECTROMETER=2D_ARRAY_INTERFACE
		DETECTOR=STARCHECK
		SCAN_CURVETYPE=CROSSPLANE_PROFILE
		SCAN_DEPTH=0.00
		SCAN_OFFAXIS_INPLANE=100.00
		SCAN_ANGLE=0.00
		SCAN_DIAGONAL=NOT_DIAGONAL
		MEAS_PRESET=TIME_PRESET
		MEAS_TIME=10.000
		MEAS_UNIT=GY
		PRESSURE=1013.25
		TEMPERATURE=20.00
		NORM_TEMPERATURE=20.00
		CORRECTION_FACTOR=1.0000
		CORRECTIONS=AIR_DENSITY_CORR;
		BEGIN_DATA
			-60.00		11.467E-03
			-30.00		14.924E-03
			30.00		14.008E-03
			60.00		8.2867E-03
		END_DATA
	END_SCAN  6
	BEGIN_SCAN  7
		TASK_NAME=MODE_INTERVAL
		PROGRAM=BeamAdjust 1.2
		MEAS_DATE=07-Oct-2010 14:04:49
		LINAC=A4
		MODALITY=X
		INPLANE_AXIS_DIR=TARGET_GUN
		CROSSPLANE_AXIS_DIR=LEFT_RIGHT
		DEPTH_AXIS_DIR=UP_DOWN
		ENERGY=6.00
		SSD=950.00
		WEDGE=None
		FIELD_INPLANE=100.00
		FIELD_CROSSPLANE=100.00
		FIELD_TYPE=RECTANGULAR
		GANTRY=0.00
		GANTRY_UPRIGHT_POSITION=0
		GANTRY_ROTATION=CW
		COLL_ANGLE=90.00
		COLL_OFFSET_INPLANE=0.00
		COLL_OFFSET_CROSSPLANE=0.00
		SCAN_DEVICE=STARCHECK
		ELECTROMETER=2D_ARRAY_INTERFACE
		DETECTOR=STARCHECK
		SCAN_CURVETYPE=CROSSPLANE_PROFILE
		SCAN_DEPTH=0.00
		SCAN_OFFAXIS_INPLANE=130.00
		SCAN_ANGLE=0.00
		SCAN_DIAGONAL=NOT_DIAGONAL
		MEAS_PRESET=TIME_PRESET
		MEAS_TIME=10.000
		MEAS_UNIT=GY
		PRESSURE=1013.25
		TEMPERATURE=20.00
		NORM_TEMPERATURE=20.00
		CORRECTION_FACTOR=1.0000
		CORRECTIONS=AIR_DENSITY_CORR;
		BEGIN_DATA
			-130.00		2.0433E-03
			-80.00		4.5330E-03
			-40.00		7.9227E-03
			40.00		6.1634E-03
			80.00		3.9004E-03
			130.00		1.9987E-03
		END_DATA
	END_SCAN  7
	BEGIN_SCAN  8
		TASK_NAME=MODE_INTERVAL
		PROGRAM=BeamAdjust 1.2
		MEAS_DATE=07-Oct-2010 14:04:49
		LINAC=A4
		MODALITY=X
		INPLANE_AXIS_DIR=TARGET_GUN
		CROSSPLANE_AXIS_DIR=LEFT_RIGHT
		DEPTH_AXIS_DIR=UP_DOWN
		ENERGY=6.00
		SSD=950.00
		WEDGE=None
		FIELD_INPLANE=100.00
		FIELD_CROSSPLANE=100.00
		FIELD_TYPE=RECTANGULAR
		GANTRY=0.00
		GANTRY_UPRIGHT_POSITION=0
		GANTRY_ROTATION=CW
		COLL_ANGLE=90.00
		COLL_OFFSET_INPLANE=0.00
		COLL_OFFSET_CROSSPLANE=0.00
		SCAN_DEVICE=STARCHECK
		ELECTROMETER=2D_ARRAY_INTERFACE
		DETECTOR=STARCHECK
		SCAN_CURVETYPE=INPLANE_PROFILE
		SCAN_DEPTH=0.00
		SCAN_OFFAXIS_CROSSPLANE=-130.00
		SCAN_ANGLE=0.00
		SCAN_DIAGONAL=NOT_DIAGONAL
		MEAS_PRESET=TIME_PRESET
		MEAS_TIME=10.000
		MEAS_UNIT=GY
		PRESSURE=1013.25
		TEMPERATURE=20.00
		NORM_TEMPERATURE=20.00
		CORRECTION_FACTOR=1.0000
		CORRECTIONS=AIR_DENSITY_CORR;
		BEGIN_DATA
			-130.00		2.7258E-03
			-125.00		2.6962E-03
			-120.00		3.3646E-03
			-115.00		3.6290E-03
			-110.00		3.8195E-03
			-105.00		4.0028E-03
			-100.00		4.1402E-03
			-95.00		4.9487E-03
			-90.00		5.0256E-03
			-85.00		4.5790E-03
			-80.00		4.9492E-03
			-75.00		5.4817E-03
			-70.00		5.2603E-03
			-65.00		6.3409E-03
			-60.00		5.7227E-03
			-55.00		6.5682E-03
			-50.00		5.0215E-03
			-45.00		5.2163E-03
			-40.00		5.7615E-03
			-35.00		5.9676E-03
			-30.00		5.9461E-03
			-25.00		6.0833E-03
			-20.00		5.9298E-03
			-15.00		5.4979E-03
			-10.00		6.0961E-03
			-5.00		7.0612E-03
			0.00		6.6500E-03
			5.00		7.7600E-03
			10.00		6.4552E-03
			15.00		6.4158E-03
			20.00		6.4685E-03
			25.00		5.5168E-03
			30.00		6.3575E-03
			35.00		6.0754E-03
			40.00		5.3905E-03
			45.00		5.3179E-03
			50.00		5.7108E-03
			55.00		4.7886E-03
			60.00		5.0986E-03
			65.00		4.6604E-03
			70.00		4.3564E-03
			75.00		4.9930E-03
			80.00		3.6919E-03
			85.00		4.3434E-03
			90.00		3.7238E-03
			95.00		3.6439E-03
			100.00		3.5180E-03
			105.00		3.1169E-03
			110.00		2.8423E-03
			115.00		2.3306E-03
			120.00		2.9185E-03
			125.00		2.8636E-03
			130.00		2.0433E-03
		END_DATA
	END_SCAN  8
	BEGIN_SCAN  9
		TASK_NAME=MODE_INTERVAL
		PROGRAM=BeamAdjust 1.2
		MEAS_DATE=07-Oct-2010 14:04:49
		LINAC=A4
		MODALITY=X
		INPLANE_AXIS_DIR=TARGET_GUN
		CROSSPLANE_AXIS_DIR=LEFT_RIGHT
		DEPTH_AXIS_DIR=UP_DOWN
		ENERGY=6.00
		SSD=950.00
		WEDGE=None
		FIELD_INPLANE=100.00
		FIELD_CROSSPLANE=100.00
		FIELD_TYPE=RECTANGULAR
		GANTRY=0.00
		GANTRY_UPRIGHT_POSITION=0
		GANTRY_ROTATION=CW
		COLL_ANGLE=90.00
		COLL_OFFSET_INPLANE=0.00
		COLL_OFFSET_CROSSPLANE=0.00
		SCAN_DEVICE=STARCHECK
		ELECTROMETER=2D_ARRAY_INTERFACE
		DETECTOR=STARCHECK
		SCAN_CURVETYPE=INPLANE_PROFILE
		SCAN_DEPTH=0.00
		SCAN_OFFAXIS_CROSSPLANE=-100.00
		SCAN_ANGLE=0.00
		SCAN_DIAGONAL=NOT_DIAGONAL
		MEAS_PRESET=TIME_PRESET
		MEAS_TIME=10.000
		MEAS_UNIT=GY
		PRESSURE=1013.25
		TEMPERATURE=20.00
		NORM_TEMPERATURE=20.00
		CORRECTION_FACTOR=1.0000
		CORRECTIONS=AIR_DENSITY_CORR;
		BEGIN_DATA
			-60.00		9.6639E-03
			-30.00		12.509E-03
			30.00		12.686E-03
			60.00		8.8023E-03
		END_DATA
	END_SCAN  9
	BEGIN_SCAN  10
		TASK_NAME=MODE_INTERVAL
		PROGRAM=BeamAdjust 1.2
		MEAS_DATE=07-Oct-2010 14:04:49
		LINAC=A4
		MODALITY=X
		INPLANE_AXIS_DIR=TARGET_GUN
		CROSSPLANE_AXIS_DIR=LEFT_RIGHT
		DEPTH_AXIS_DIR=UP_DOWN
		ENERGY=6.00
		SSD=950.00
		WEDGE=None
		FIELD_INPLANE=100.00
		FIELD_CROSSPLANE=100.00
		FIELD_TYPE=RECTANGULAR
		GANTRY=0.00
		GANTRY_UPRIGHT_POSITION=0
		GANTRY_ROTATION=CW
		COLL_ANGLE=90.00
		COLL_OFFSET_INPLANE=0.00
		COLL_OFFSET_CROSSPLANE=0.00
		SCAN_DEVICE=STARCHECK
		ELECTROMETER=2D_ARRAY_INTERFACE
		DETECTOR=STARCHECK
		SCAN_CURVETYPE=INPLANE_PROFILE
		SCAN_DEPTH=0.00
		SCAN_OFFAXIS_CROSSPLANE=-50.00
		SCAN_ANGLE=0.00
		SCAN_DIAGONAL=NOT_DIAGONAL
		MEAS_PRESET=TIME_PRESET
		MEAS_TIME=10.000
		MEAS_UNIT=GY
		PRESSURE=1013.25
		TEMPERATURE=20.00
		NORM_TEMPERATURE=20.00
		CORRECTION_FACTOR=1.0000
		CORRECTIONS=AIR_DENSITY_CORR;
		BEGIN_DATA
			-30.00		639.93E-03
			-15.00		641.62E-03
			15.00		641.93E-03
			30.00		635.68E-03
		END_DATA
	END_SCAN  10
	BEGIN_SCAN  11
		TASK_NAME=MODE_INTERVAL
		PROGRAM=BeamAdjust 1.2
		MEAS_DATE=07-Oct-2010 14:04:49
		LINAC=A4
		MODALITY=X
		INPLANE_AXIS_DIR=TARGET_GUN
		CROSSPLANE_AXIS_DIR=LEFT_RIGHT
		DEPTH_AXIS_DIR=UP_DOWN
		ENERGY=6.00
		SSD=950.00
		WEDGE=None
		FIELD_INPLANE=100.00
		FIELD_CROSSPLANE=100.00
		FIELD_TYPE=RECTANGULAR
		GANTRY=0.00
		GANTRY_UPRIGHT_POSITION=0
		GANTRY_ROTATION=CW
		COLL_ANGLE=90.00
		COLL_OFFSET_INPLANE=0.00
		COLL_OFFSET_CROSSPLANE=0.00
		SCAN_DEVICE=STARCHECK
		ELECTROMETER=2D_ARRAY_INTERFACE
		DETECTOR=STARCHECK
		SCAN_CURVETYPE=INPLANE_PROFILE
		SCAN_DEPTH=0.00
		SCAN_OFFAXIS_CROSSPLANE=0.00
		SCAN_ANGLE=0.00
		SCAN_DIAGONAL=NOT_DIAGONAL
		MEAS_PRESET=TIME_PRESET
		MEAS_TIME=10.000
		MEAS_UNIT=GY
		PRESSURE=1013.25
		TEMPERATURE=20.00
		NORM_TEMPERATURE=20.00
		CORRECTION_FACTOR=1.0000
		CORRECTIONS=AIR_DENSITY_CORR;
		BEGIN_DATA
			-126.00		9.1716E-03
			-123.00		9.2714E-03
			-120.00		10.263E-03
			-117.00		11.112E-03
			-114.00		12.148E-03
			-111.00		12.775E-03
			-108.00		13.458E-03
			-105.00		14.554E-03
			-102.00		15.877E-03
			-99.00		16.945E-03
			-96.00		18.225E-03
			-93.00		20.315E-03
			-90.00		21.937E-03
			-87.00		23.342E-03
			-84.00		25.502E-03
			-81.00		28.376E-03
			-78.00		30.625E-03
			-75.00		33.256E-03
			-72.00		36.994E-03
			-69.00		40.656E-03
			-66.00		46.095E-03
			-63.00		52.529E-03
			-60.00		62.437E-03
			-57.00		82.047E-03
			-54.00		130.75E-03
			-51.00		293.38E-03
			-48.00		551.27E-03
			-45.00		622.84E-03
			-42.00		643.78E-03
			-39.00		653.50E-03
			-36.00		658.79E-03
			-33.00		662.20E-03
			-30.00		666.85E-03
			-27.00		667.28E-03
			-24.00		666.88E-03
			-21.00		666.06E-03
			-18.00		671.78E-03
			-15.00		670.72E-03
			-12.00		672.10E-03
			-9.00		672.56E-03
			-6.00		670.97E-03
			0.00		669.96E-03
			6.00		673.95E-03
			9.00		672.54E-03
			12.00		671.59E-03
			15.00		669.68E-03
			18.00		666.01E-03
			21.00		666.36E-03
			24.00		662.27E-03
			27.00		663.71E-03
			30.00		659.38E-03
			33.00		657.30E-03
			36.00		655.17E-03
			39.00		643.40E-03
			42.00		631.97E-03
			45.00		599.00E-03
			48.00		438.98E-03
			51.00		192.10E-03
			54.00		99.530E-03
			57.00		70.185E-03
			60.00		56.800E-03
			63.00		49.130E-03
			66.00		43.439E-03
			69.00		38.491E-03
			72.00		34.859E-03
			75.00		31.267E-03
			78.00		28.444E-03
			81.00		26.188E-03
			84.00		24.501E-03
			87.00		22.267E-03
			90.00		21.064E-03
			93.00		19.250E-03
			96.00		18.104E-03
			99.00		16.625E-03
			102.00		14.963E-03
			105.00		14.519E-03
			108.00		13.579E-03
			111.00		12.213E-03
			114.00		11.498E-03
			117.00		10.691E-03
			120.00		10.199E-03
			123.00		9.2811E-03
			126.00		8.5193E-03
		END_DATA
	END_SCAN  11
	BEGIN_SCAN  12
		TASK_NAME=MODE_INTERVAL
		PROGRAM=BeamAdjust 1.2
		MEAS_DATE=07-Oct-2010 14:04:49
		LINAC=A4
		MODALITY=X
		INPLANE_AXIS_DIR=TARGET_GUN
		CROSSPLANE_AXIS_DIR=LEFT_RIGHT
		DEPTH_AXIS_DIR=UP_DOWN
		ENERGY=6.00
		SSD=950.00
		WEDGE=None
		FIELD_INPLANE=100.00
		FIELD_CROSSPLANE=100.00
		FIELD_TYPE=RECTANGULAR
		GANTRY=0.00
		GANTRY_UPRIGHT_POSITION=0
		GANTRY_ROTATION=CW
		COLL_ANGLE=90.00
		COLL_OFFSET_INPLANE=0.00
		COLL_OFFSET_CROSSPLANE=0.00
		SCAN_DEVICE=STARCHECK
		ELECTROMETER=2D_ARRAY_INTERFACE
		DETECTOR=STARCHECK
		SCAN_CURVETYPE=INPLANE_PROFILE
		SCAN_DEPTH=0.00
		SCAN_OFFAXIS_CROSSPLANE=50.00
		SCAN_ANGLE=0.00
		SCAN_DIAGONAL=NOT_DIAGONAL
		MEAS_PRESET=TIME_PRESET
		MEAS_TIME=10.000
		MEAS_UNIT=GY
		PRESSURE=1013.25
		TEMPERATURE=20.00
		NORM_TEMPERATURE=20.00
		CORRECTION_FACTOR=1.0000
		CORRECTIONS=AIR_DENSITY_CORR;
		BEGIN_DATA
			-30.00		61.376E-03
			-15.00		66.361E-03
			15.00		66.661E-03
			30.00		63.302E-03
		END_DATA
	END_SCAN  12
	BEGIN_SCAN  13
		TASK_NAME=MODE_INTERVAL
		PROGRAM=BeamAdjust 1.2
		MEAS_DATE=07-Oct-2010 14:04:49
		LINAC=A4
		MODALITY=X
		INPLANE_AXIS_DIR=TARGET_GUN
		CROSSPLANE_AXIS_DIR=LEFT_RIGHT
		DEPTH_AXIS_DIR=UP_DOWN
		ENERGY=6.00
		SSD=950.00
		WEDGE=None
		FIELD_INPLANE=100.00
		FIELD_CROSSPLANE=100.00
		FIELD_TYPE=RECTANGULAR
		GANTRY=0.00
		GANTRY_UPRIGHT_POSITION=0
		GANTRY_ROTATION=CW
		COLL_ANGLE=90.00
		COLL_OFFSET_INPLANE=0.00
		COLL_OFFSET_CROSSPLANE=0.00
		SCAN_DEVICE=STARCHECK
		ELECTROMETER=2D_ARRAY_INTERFACE
		DETECTOR=STARCHECK
		SCAN_CURVETYPE=INPLANE_PROFILE
		SCAN_DEPTH=0.00
		SCAN_OFFAXIS_CROSSPLANE=100.00
		SCAN_ANGLE=0.00
		SCAN_DIAGONAL=NOT_DIAGONAL
		MEAS_PRESET=TIME_PRESET
		MEAS_TIME=10.000
		MEAS_UNIT=GY
		PRESSURE=1013.25
		TEMPERATURE=20.00
		NORM_TEMPERATURE=20.00
		CORRECTION_FACTOR=1.0000
		CORRECTIONS=AIR_DENSITY_CORR;
		BEGIN_DATA
			-60.00		7.4371E-03
			-30.00		9.2083E-03
			30.00		9.4086E-03
			60.00		6.3975E-03
		END_DATA
	END_SCAN  13
	BEGIN_SCAN  14
		TASK_NAME=MODE_INTERVAL
		PROGRAM=BeamAdjust 1.2
		MEAS_DATE=07-Oct-2010 14:04:49
		LINAC=A4
		MODALITY=X
		INPLANE_AXIS_DIR=TARGET_GUN
		CROSSPLANE_AXIS_DIR=LEFT_RIGHT
		DEPTH_AXIS_DIR=UP_DOWN
		ENERGY=6.00
		SSD=950.00
		WEDGE=None
		FIELD_INPLANE=100.00
		FIELD_CROSSPLANE=100.00
		FIELD_TYPE=RECTANGULAR
		GANTRY=0.00
		GANTRY_UPRIGHT_POSITION=0
		GANTRY_ROTATION=CW
		COLL_ANGLE=90.00
		COLL_OFFSET_INPLANE=0.00
		COLL_OFFSET_CROSSPLANE=0.00
		SCAN_DEVICE=STARCHECK
		ELECTROMETER=2D_ARRAY_INTERFACE
		DETECTOR=STARCHECK
		SCAN_CURVETYPE=INPLANE_PROFILE
		SCAN_DEPTH=0.00
		SCAN_OFFAXIS_CROSSPLANE=130.00
		SCAN_ANGLE=0.00
		SCAN_DIAGONAL=NOT_DIAGONAL
		MEAS_PRESET=TIME_PRESET
		MEAS_TIME=10.000
		MEAS_UNIT=GY
		PRESSURE=1013.25
		TEMPERATURE=20.00
		NORM_TEMPERATURE=20.00
		CORRECTION_FACTOR=1.0000
		CORRECTIONS=AIR_DENSITY_CORR;
		BEGIN_DATA
			-130.00		1.8656E-03
			-125.00		2.4499E-03
			-120.00		2.2940E-03
			-115.00		2.3980E-03
			-110.00		2.2947E-03
			-105.00		2.5346E-03
			-100.00		2.9065E-03
			-95.00		2.6215E-03
			-90.00		2.5488E-03
			-85.00		3.4230E-03
			-80.00		3.2389E-03
			-75.00		3.4075E-03
			-70.00		3.7421E-03
			-65.00		3.7148E-03
			-60.00		4.2367E-03
			-55.00		4.4491E-03
			-50.00		3.8322E-03
			-45.00		4.5511E-03
			-40.00		4.4207E-03
			-35.00		4.7581E-03
			-30.00		4.8598E-03
			-25.00		4.5987E-03
			-20.00		4.8892E-03
			-15.00		4.9486E-03
			-10.00		4.2680E-03
			-5.00		5.0994E-03
			0.00		5.6187E-03
			5.00		5.1183E-03
			10.00		5.3138E-03
			15.00		5.0791E-03
			20.00		4.9650E-03
			25.00		5.3590E-03
			30.00		4.3495E-03
			35.00		4.6158E-03
			40.00		5.1973E-03
			45.00		4.4496E-03
			50.00		4.1777E-03
			55.00		4.6915E-03
			60.00		4.3228E-03
			65.00		3.5436E-03
			70.00		3.6989E-03
			75.00		3.6273E-03
			80.00		3.9229E-03
			85.00		3.8330E-03
			90.00		2.8154E-03
			95.00		3.2049E-03
			100.00		3.2838E-03
			105.00		2.4973E-03
			110.00		2.6029E-03
			115.00		2.6784E-03
			120.00		2.3746E-03
			125.00		2.1562E-03
			130.00		1.9987E-03
		END_DATA
	END_SCAN  14
	BEGIN_SCAN  15
		TASK_NAME=MODE_INTERVAL
		PROGRAM=BeamAdjust 1.2
		MEAS_DATE=07-Oct-2010 14:04:49
		LINAC=A4
		MODALITY=X
		INPLANE_AXIS_DIR=TARGET_GUN
		CROSSPLANE_AXIS_DIR=LEFT_RIGHT
		DEPTH_AXIS_DIR=UP_DOWN
		ENERGY=6.00
		SSD=950.00
		WEDGE=None
		FIELD_INPLANE=100.00
		FIELD_CROSSPLANE=100.00
		FIELD_TYPE=RECTANGULAR
		GANTRY=0.00
		GANTRY_UPRIGHT_POSITION=0
		GANTRY_ROTATION=CW
		COLL_ANGLE=90.00
		COLL_OFFSET_INPLANE=0.00
		COLL_OFFSET_CROSSPLANE=0.00
		SCAN_DEVICE=STARCHECK
		ELECTROMETER=2D_ARRAY_INTERFACE
		DETECTOR=STARCHECK
		SCAN_CURVETYPE=INPLANE_PROFILE
		SCAN_DEPTH=0.00
		SCAN_OFFAXIS_CROSSPLANE=0.00
		SCAN_ANGLE=0.00
		SCAN_DIAGONAL=FIRST_DIAGONAL
		MEAS_PRESET=TIME_PRESET
		MEAS_TIME=10.000
		MEAS_UNIT=GY
		PRESSURE=1013.25
		TEMPERATURE=20.00
		NORM_TEMPERATURE=20.00
		CORRECTION_FACTOR=1.0000
		CORRECTIONS=AIR_DENSITY_CORR;
		BEGIN_DATA
			-172.40		2.7535E-03
			-169.40		3.3097E-03
			-166.40		4.1180E-03
			-163.40		4.0406E-03
			-160.40		4.2518E-03
			-157.40		4.9244E-03
			-154.40		4.3536E-03
			-151.40		4.6670E-03
			-148.40		5.1239E-03
			-145.40		5.9923E-03
			-142.40		6.2607E-03
			-139.40		6.1765E-03
			-136.40		6.5993E-03
			-133.40		7.8613E-03
			-130.40		7.9896E-03
			-127.40		8.7324E-03
			-124.40		9.1042E-03
			-121.40		10.137E-03
			-118.40		11.173E-03
			-115.40		12.606E-03
			-112.40		12.854E-03
			-109.40		14.641E-03
			-106.40		15.284E-03
			-103.40		16.849E-03
			-100.40		18.711E-03
			-97.40		20.834E-03
			-94.40		23.300E-03
			-91.40		25.957E-03
			-88.40		29.977E-03
			-85.40		34.480E-03
			-82.40		42.488E-03
			-79.40		58.123E-03
			-76.40		104.12E-03
			-73.40		228.00E-03
			-70.40		387.50E-03
			-67.40		519.81E-03
			-64.40		593.58E-03
			-61.40		623.10E-03
			-58.40		636.57E-03
			-55.40		644.87E-03
			-52.40		649.90E-03
			-49.40		654.12E-03
			-46.40		656.02E-03
			-43.40		658.11E-03
			-40.40		660.47E-03
			-37.40		664.97E-03
			-34.40		664.36E-03
			-31.40		665.33E-03
			-28.40		663.76E-03
			-25.40		667.01E-03
			-22.40		667.71E-03
			-19.40		669.13E-03
			-16.40		671.19E-03
			-13.40		672.44E-03
			0.00		669.96E-03
			13.40		671.31E-03
			16.40		667.62E-03
			19.40		667.92E-03
			22.40		666.36E-03
			25.40		665.18E-03
			28.40		663.90E-03
			31.40		661.07E-03
			34.40		657.36E-03
			37.40		659.34E-03
			40.40		655.86E-03
			43.40		651.21E-03
			46.40		647.38E-03
			49.40		637.41E-03
			52.40		625.19E-03
			55.40		594.12E-03
			58.40		521.86E-03
			61.40		377.93E-03
			64.40		197.12E-03
			67.40		83.226E-03
			70.40		50.577E-03
			73.40		38.992E-03
			76.40		32.092E-03
			79.40		28.084E-03
			82.40		24.600E-03
			85.40		21.979E-03
			88.40		20.279E-03
			91.40		17.884E-03
			94.40		16.551E-03
			97.40		14.843E-03
			100.40		13.673E-03
			103.40		12.953E-03
			106.40		11.902E-03
			109.40		10.570E-03
			112.40		9.1990E-03
			115.40		9.1606E-03
			118.40		8.1966E-03
			121.40		7.5453E-03
			124.40		7.1419E-03
			127.40		6.7566E-03
			130.40		6.6854E-03
			133.40		5.4879E-03
			136.40		5.0433E-03
			139.40		4.1981E-03
			142.40		4.2744E-03
			145.40		4.6064E-03
			148.40		4.5882E-03
			151.40		3.2500E-03
			154.40		3.8780E-03
			157.40		3.9142E-03
			160.40		2.4964E-03
			163.40		2.5947E-03
			166.40		3.0834E-03
			169.40		2.4493E-03
			172.40		2.4803E-03
		END_DATA
	END_SCAN  15
	BEGIN_SCAN  16
		TASK_NAME=MODE_INTERVAL
		PROGRAM=BeamAdjust 1.2
		MEAS_DATE=07-Oct-2010 14:04:49
		LINAC=A4
		MODALITY=X
		INPLANE_AXIS_DIR=GUN_TARGET
		CROSSPLANE_AXIS_DIR=LEFT_RIGHT
		DEPTH_AXIS_DIR=UP_DOWN
		ENERGY=6.00
		SSD=950.00
		WEDGE=None
		FIELD_INPLANE=100.00
		FIELD_CROSSPLANE=100.00
		FIELD_TYPE=RECTANGULAR
		GANTRY=0.00
		GANTRY_UPRIGHT_POSITION=0
		GANTRY_ROTATION=CW
		COLL_ANGLE=90.00
		COLL_OFFSET_INPLANE=0.00
		COLL_OFFSET_CROSSPLANE=0.00
		SCAN_DEVICE=STARCHECK
		ELECTROMETER=2D_ARRAY_INTERFACE
		DETECTOR=STARCHECK
		SCAN_CURVETYPE=INPLANE_PROFILE
		SCAN_DEPTH=0.00
		SCAN_OFFAXIS_CROSSPLANE=0.00
		SCAN_ANGLE=0.00
		SCAN_DIAGONAL=SECOND_DIAGONAL
		MEAS_PRESET=TIME_PRESET
		MEAS_TIME=10.000
		MEAS_UNIT=GY
		PRESSURE=1013.25
		TEMPERATURE=20.00
		NORM_TEMPERATURE=20.00
		CORRECTION_FACTOR=1.0000
		CORRECTIONS=AIR_DENSITY_CORR;
		BEGIN_DATA
			-172.40		2.8027E-03
			-169.40		2.7925E-03
			-166.40		2.7535E-03
			-163.40		2.8486E-03
			-160.40		3.1333E-03
			-157.40		3.5618E-03
			-154.40		3.7972E-03
			-151.40		3.9832E-03
			-148.40		4.6779E-03
			-145.40		3.9617E-03
			-142.40		5.2635E-03
			-139.40		5.0930E-03
			-136.40		4.8958E-03
			-133.40		5.9795E-03
			-130.40		6.4983E-03
			-127.40		6.9795E-03
			-124.40		7.6020E-03
			-121.40		8.1969E-03
			-118.40		8.5691E-03
			-115.40		8.9886E-03
			-112.40		9.3809E-03
			-109.40		11.073E-03
			-106.40		12.160E-03
			-103.40		12.337E-03
			-100.40		14.352E-03
			-97.40		15.296E-03
			-94.40		16.293E-03
			-91.40		18.198E-03
			-88.40		19.679E-03
			-85.40		21.838E-03
			-82.40		24.850E-03
			-79.40		28.388E-03
			-76.40		32.866E-03
			-73.40		40.343E-03
			-70.40		53.353E-03
			-67.40		90.699E-03
			-64.40		208.05E-03
			-61.40		371.20E-03
			-58.40		518.81E-03
			-55.40		598.07E-03
			-52.40		630.62E-03
			-49.40		643.71E-03
			-46.40		650.82E-03
			-43.40		656.10E-03
			-40.40		659.09E-03
			-37.40		663.21E-03
			-34.40		663.62E-03
			-31.40		665.57E-03
			-28.40		667.96E-03
			-25.40		667.50E-03
			-22.40		665.92E-03
			-19.40		668.75E-03
			-16.40		669.46E-03
			-13.40		672.34E-03
			0.00		669.96E-03
			13.40		674.32E-03
			16.40		671.89E-03
			19.40		667.92E-03
			22.40		664.74E-03
			25.40		664.45E-03
			28.40		663.33E-03
			31.40		662.28E-03
			34.40		660.02E-03
			37.40		659.15E-03
			40.40		658.76E-03
			43.40		656.42E-03
			46.40		655.01E-03
			49.40		651.58E-03
			52.40		644.07E-03
			55.40		637.22E-03
			58.40		628.49E-03
			61.40		605.33E-03
			64.40		546.91E-03
			67.40		433.19E-03
			70.40		280.36E-03
			73.40		145.22E-03
			76.40		74.711E-03
			79.40		48.622E-03
			82.40		39.416E-03
			85.40		32.899E-03
			88.40		28.552E-03
			91.40		25.663E-03
			94.40		22.683E-03
			97.40		20.774E-03
			100.40		17.694E-03
			103.40		16.196E-03
			106.40		15.166E-03
			109.40		13.792E-03
			112.40		12.745E-03
			115.40		11.549E-03
			118.40		10.475E-03
			121.40		9.6255E-03
			124.40		9.2387E-03
			127.40		8.1193E-03
			130.40		8.1759E-03
			133.40		7.3536E-03
			136.40		6.4795E-03
			139.40		6.8841E-03
			142.40		6.2914E-03
			145.40		5.9446E-03
			148.40		5.1102E-03
			151.40		4.6442E-03
			154.40		4.6085E-03
			157.40		4.3566E-03
			160.40		3.9695E-03
			163.40		4.2038E-03
			166.40		4.6336E-03
			169.40		2.9850E-03
			172.40		2.9214E-03
		END_DATA
	END_SCAN  16
END_SCAN_DATA
