BEGIN_SCAN_DATA
	FORMAT=CC-Export V1.9                  
	FILE_CREATION_DATE=07-Oct-2010 14:05:23
	LAST_MODIFIED=07-Oct-2010 14:05:23
	BEGIN_SCAN  1
		TASK_NAME=MODE_INTERVAL
		PROGRAM=BeamAdjust 1.2
		MEAS_DATE=07-Oct-2010 14:05:23
		LINAC=A4
		MODALITY=X
		INPLANE_AXIS_DIR=TARGET_GUN
		CROSSPLANE_AXIS_DIR=LEFT_RIGHT
		DEPTH_AXIS_DIR=UP_DOWN
		ENERGY=6.00
		SSD=950.00
		WEDGE=None
		FIELD_INPLANE=100.00
		FIELD_CROSSPLANE=100.00
		FIELD_TYPE=RECTANGULAR
		GANTRY=0.00
		GANTRY_UPRIGHT_POSITION=0
		GANTRY_ROTATION=CW
		COLL_ANGLE=90.00
		COLL_OFFSET_INPLANE=0.00
		COLL_OFFSET_CROSSPLANE=0.00
		SCAN_DEVICE=STARCHECK
		ELECTROMETER=2D_ARRAY_INTERFACE
		DETECTOR=STARCHECK
		SCAN_CURVETYPE=CROSSPLANE_PROFILE
		SCAN_DEPTH=0.00
		SCAN_OFFAXIS_INPLANE=-130.00
		SCAN_ANGLE=0.00
		SCAN_DIAGONAL=NOT_DIAGONAL
		MEAS_PRESET=TIME_PRESET
		MEAS_TIME=10.000
		MEAS_UNIT=GY
		PRESSURE=1013.25
		TEMPERATURE=20.00
		NORM_TEMPERATURE=20.00
		CORRECTION_FACTOR=1.0000
		CORRECTIONS=AIR_DENSITY_CORR;
		BEGIN_DATA
			-130.00		2.9931E-03
			-80.00		4.7245E-03
			-40.00		7.3088E-03
			40.00		6.8945E-03
			80.00		3.2538E-03
			130.00		1.7235E-03
		END_DATA
	END_SCAN  1
	BEGIN_SCAN  2
		TASK_NAME=MODE_INTERVAL
		PROGRAM=BeamAdjust 1.2
		MEAS_DATE=07-Oct-2010 14:05:23
		LINAC=A4
		MODALITY=X
		INPLANE_AXIS_DIR=TARGET_GUN
		CROSSPLANE_AXIS_DIR=LEFT_RIGHT
		DEPTH_AXIS_DIR=UP_DOWN
		ENERGY=6.00
		SSD=950.00
		WEDGE=None
		FIELD_INPLANE=100.00
		FIELD_CROSSPLANE=100.00
		FIELD_TYPE=RECTANGULAR
		GANTRY=0.00
		GANTRY_UPRIGHT_POSITION=0
		GANTRY_ROTATION=CW
		COLL_ANGLE=90.00
		COLL_OFFSET_INPLANE=0.00
		COLL_OFFSET_CROSSPLANE=0.00
		SCAN_DEVICE=STARCHECK
		ELECTROMETER=2D_ARRAY_INTERFACE
		DETECTOR=STARCHECK
		SCAN_CURVETYPE=CROSSPLANE_PROFILE
		SCAN_DEPTH=0.00
		SCAN_OFFAXIS_INPLANE=-100.00
		SCAN_ANGLE=0.00
		SCAN_DIAGONAL=NOT_DIAGONAL
		MEAS_PRESET=TIME_PRESET
		MEAS_TIME=10.000
		MEAS_UNIT=GY
		PRESSURE=1013.25
		TEMPERATURE=20.00
		NORM_TEMPERATURE=20.00
		CORRECTION_FACTOR=1.0000
		CORRECTIONS=AIR_DENSITY_CORR;
		BEGIN_DATA
			-60.00		11.470E-03
			-30.00		14.532E-03
			30.00		14.684E-03
			60.00		9.2865E-03
		END_DATA
	END_SCAN  2
	BEGIN_SCAN  3
		TASK_NAME=MODE_INTERVAL
		PROGRAM=BeamAdjust 1.2
		MEAS_DATE=07-Oct-2010 14:05:23
		LINAC=A4
		MODALITY=X
		INPLANE_AXIS_DIR=TARGET_GUN
		CROSSPLANE_AXIS_DIR=LEFT_RIGHT
		DEPTH_AXIS_DIR=UP_DOWN
		ENERGY=6.00
		SSD=950.00
		WEDGE=None
		FIELD_INPLANE=100.00
		FIELD_CROSSPLANE=100.00
		FIELD_TYPE=RECTANGULAR
		GANTRY=0.00
		GANTRY_UPRIGHT_POSITION=0
		GANTRY_ROTATION=CW
		COLL_ANGLE=90.00
		COLL_OFFSET_INPLANE=0.00
		COLL_OFFSET_CROSSPLANE=0.00
		SCAN_DEVICE=STARCHECK
		ELECTROMETER=2D_ARRAY_INTERFACE
		DETECTOR=STARCHECK
		SCAN_CURVETYPE=CROSSPLANE_PROFILE
		SCAN_DEPTH=0.00
		SCAN_OFFAXIS_INPLANE=-50.00
		SCAN_ANGLE=0.00
		SCAN_DIAGONAL=NOT_DIAGONAL
		MEAS_PRESET=TIME_PRESET
		MEAS_TIME=10.000
		MEAS_UNIT=GY
		PRESSURE=1013.25
		TEMPERATURE=20.00
		NORM_TEMPERATURE=20.00
		CORRECTION_FACTOR=1.0000
		CORRECTIONS=AIR_DENSITY_CORR;
		BEGIN_DATA
			-30.00		382.13E-03
			-15.00		387.22E-03
			15.00		388.43E-03
			30.00		377.36E-03
		END_DATA
	END_SCAN  3
	BEGIN_SCAN  4
		TASK_NAME=MODE_INTERVAL
		PROGRAM=BeamAdjust 1.2
		MEAS_DATE=07-Oct-2010 14:05:23
		LINAC=A4
		MODALITY=X
		INPLANE_AXIS_DIR=TARGET_GUN
		CROSSPLANE_AXIS_DIR=LEFT_RIGHT
		DEPTH_AXIS_DIR=UP_DOWN
		ENERGY=6.00
		SSD=950.00
		WEDGE=None
		FIELD_INPLANE=100.00
		FIELD_CROSSPLANE=100.00
		FIELD_TYPE=RECTANGULAR
		GANTRY=0.00
		GANTRY_UPRIGHT_POSITION=0
		GANTRY_ROTATION=CW
		COLL_ANGLE=90.00
		COLL_OFFSET_INPLANE=0.00
		COLL_OFFSET_CROSSPLANE=0.00
		SCAN_DEVICE=STARCHECK
		ELECTROMETER=2D_ARRAY_INTERFACE
		DETECTOR=STARCHECK
		SCAN_CURVETYPE=CROSSPLANE_PROFILE
		SCAN_DEPTH=0.00
		SCAN_OFFAXIS_INPLANE=0.00
		SCAN_ANGLE=0.00
		SCAN_DIAGONAL=NOT_DIAGONAL
		MEAS_PRESET=TIME_PRESET
		MEAS_TIME=10.000
		MEAS_UNIT=GY
		PRESSURE=1013.25
		TEMPERATURE=20.00
		NORM_TEMPERATURE=20.00
		CORRECTION_FACTOR=1.0000
		CORRECTIONS=AIR_DENSITY_CORR;
		BEGIN_DATA
			-126.00		7.4900E-03
			-123.00		8.3507E-03
			-120.00		9.0922E-03
			-117.00		9.8542E-03
			-114.00		10.249E-03
			-111.00		11.650E-03
			-108.00		12.142E-03
			-105.00		13.058E-03
			-102.00		13.831E-03
			-99.00		15.437E-03
			-96.00		16.587E-03
			-93.00		18.364E-03
			-90.00		20.195E-03
			-87.00		21.972E-03
			-84.00		24.912E-03
			-81.00		27.354E-03
			-78.00		30.240E-03
			-75.00		34.510E-03
			-72.00		38.961E-03
			-69.00		46.510E-03
			-66.00		56.144E-03
			-63.00		72.891E-03
			-60.00		115.44E-03
			-57.00		291.80E-03
			-54.00		554.86E-03
			-51.00		620.31E-03
			-48.00		640.80E-03
			-45.00		647.14E-03
			-42.00		651.18E-03
			-39.00		658.00E-03
			-36.00		661.08E-03
			-33.00		659.88E-03
			-30.00		660.31E-03
			-27.00		663.17E-03
			-24.00		665.55E-03
			-21.00		665.83E-03
			-18.00		670.85E-03
			-15.00		668.94E-03
			-12.00		666.68E-03
			-9.00		668.88E-03
			-6.00		668.69E-03
			0.00		669.38E-03
			6.00		672.18E-03
			9.00		669.61E-03
			12.00		666.10E-03
			15.00		665.83E-03
			18.00		665.12E-03
			21.00		663.40E-03
			24.00		659.92E-03
			27.00		661.70E-03
			30.00		657.85E-03
			33.00		651.79E-03
			36.00		640.70E-03
			39.00		615.46E-03
			42.00		526.11E-03
			45.00		232.25E-03
			48.00		101.26E-03
			51.00		67.860E-03
			54.00		52.895E-03
			57.00		44.217E-03
			60.00		38.162E-03
			63.00		33.580E-03
			66.00		30.103E-03
			69.00		26.627E-03
			72.00		24.031E-03
			75.00		21.401E-03
			78.00		19.694E-03
			81.00		18.035E-03
			84.00		16.669E-03
			87.00		14.682E-03
			90.00		14.442E-03
			93.00		12.888E-03
			96.00		11.900E-03
			99.00		11.145E-03
			102.00		10.337E-03
			105.00		9.6794E-03
			108.00		9.8598E-03
			111.00		7.7966E-03
			114.00		7.7227E-03
			117.00		7.5925E-03
			120.00		6.4552E-03
			123.00		6.2651E-03
			126.00		6.3220E-03
		END_DATA
	END_SCAN  4
	BEGIN_SCAN  5
		TASK_NAME=MODE_INTERVAL
		PROGRAM=BeamAdjust 1.2
		MEAS_DATE=07-Oct-2010 14:05:23
		LINAC=A4
		MODALITY=X
		INPLANE_AXIS_DIR=TARGET_GUN
		CROSSPLANE_AXIS_DIR=LEFT_RIGHT
		DEPTH_AXIS_DIR=UP_DOWN
		ENERGY=6.00
		SSD=950.00
		WEDGE=None
		FIELD_INPLANE=100.00
		FIELD_CROSSPLANE=100.00
		FIELD_TYPE=RECTANGULAR
		GANTRY=0.00
		GANTRY_UPRIGHT_POSITION=0
		GANTRY_ROTATION=CW
		COLL_ANGLE=90.00
		COLL_OFFSET_INPLANE=0.00
		COLL_OFFSET_CROSSPLANE=0.00
		SCAN_DEVICE=STARCHECK
		ELECTROMETER=2D_ARRAY_INTERFACE
		DETECTOR=STARCHECK
		SCAN_CURVETYPE=CROSSPLANE_PROFILE
		SCAN_DEPTH=0.00
		SCAN_OFFAXIS_INPLANE=50.00
		SCAN_ANGLE=0.00
		SCAN_DIAGONAL=NOT_DIAGONAL
		MEAS_PRESET=TIME_PRESET
		MEAS_TIME=10.000
		MEAS_UNIT=GY
		PRESSURE=1013.25
		TEMPERATURE=20.00
		NORM_TEMPERATURE=20.00
		CORRECTION_FACTOR=1.0000
		CORRECTIONS=AIR_DENSITY_CORR;
		BEGIN_DATA
			-30.00		270.48E-03
			-15.00		283.65E-03
			15.00		264.71E-03
			30.00		245.63E-03
		END_DATA
	END_SCAN  5
	BEGIN_SCAN  6
		TASK_NAME=MODE_INTERVAL
		PROGRAM=BeamAdjust 1.2
		MEAS_DATE=07-Oct-2010 14:05:23
		LINAC=A4
		MODALITY=X
		INPLANE_AXIS_DIR=TARGET_GUN
		CROSSPLANE_AXIS_DIR=LEFT_RIGHT
		DEPTH_AXIS_DIR=UP_DOWN
		ENERGY=6.00
		SSD=950.00
		WEDGE=None
		FIELD_INPLANE=100.00
		FIELD_CROSSPLANE=100.00
		FIELD_TYPE=RECTANGULAR
		GANTRY=0.00
		GANTRY_UPRIGHT_POSITION=0
		GANTRY_ROTATION=CW
		COLL_ANGLE=90.00
		COLL_OFFSET_INPLANE=0.00
		COLL_OFFSET_CROSSPLANE=0.00
		SCAN_DEVICE=STARCHECK
		ELECTROMETER=2D_ARRAY_INTERFACE
		DETECTOR=STARCHECK
		SCAN_CURVETYPE=CROSSPLANE_PROFILE
		SCAN_DEPTH=0.00
		SCAN_OFFAXIS_INPLANE=100.00
		SCAN_ANGLE=0.00
		SCAN_DIAGONAL=NOT_DIAGONAL
		MEAS_PRESET=TIME_PRESET
		MEAS_TIME=10.000
		MEAS_UNIT=GY
		PRESSURE=1013.25
		TEMPERATURE=20.00
		NORM_TEMPERATURE=20.00
		CORRECTION_FACTOR=1.0000
		CORRECTIONS=AIR_DENSITY_CORR;
		BEGIN_DATA
			-60.00		11.049E-03
			-30.00		14.811E-03
			30.00		14.372E-03
			60.00		8.0838E-03
		END_DATA
	END_SCAN  6
	BEGIN_SCAN  7
		TASK_NAME=MODE_INTERVAL
		PROGRAM=BeamAdjust 1.2
		MEAS_DATE=07-Oct-2010 14:05:23
		LINAC=A4
		MODALITY=X
		INPLANE_AXIS_DIR=TARGET_GUN
		CROSSPLANE_AXIS_DIR=LEFT_RIGHT
		DEPTH_AXIS_DIR=UP_DOWN
		ENERGY=6.00
		SSD=950.00
		WEDGE=None
		FIELD_INPLANE=100.00
		FIELD_CROSSPLANE=100.00
		FIELD_TYPE=RECTANGULAR
		GANTRY=0.00
		GANTRY_UPRIGHT_POSITION=0
		GANTRY_ROTATION=CW
		COLL_ANGLE=90.00
		COLL_OFFSET_INPLANE=0.00
		COLL_OFFSET_CROSSPLANE=0.00
		SCAN_DEVICE=STARCHECK
		ELECTROMETER=2D_ARRAY_INTERFACE
		DETECTOR=STARCHECK
		SCAN_CURVETYPE=CROSSPLANE_PROFILE
		SCAN_DEPTH=0.00
		SCAN_OFFAXIS_INPLANE=130.00
		SCAN_ANGLE=0.00
		SCAN_DIAGONAL=NOT_DIAGONAL
		MEAS_PRESET=TIME_PRESET
		MEAS_TIME=10.000
		MEAS_UNIT=GY
		PRESSURE=1013.25
		TEMPERATURE=20.00
		NORM_TEMPERATURE=20.00
		CORRECTION_FACTOR=1.0000
		CORRECTIONS=AIR_DENSITY_CORR;
		BEGIN_DATA
			-130.00		1.9455E-03
			-80.00		4.5285E-03
			-40.00		7.7162E-03
			40.00		6.4896E-03
			80.00		3.7234E-03
			130.00		1.8701E-03
		END_DATA
	END_SCAN  7
	BEGIN_SCAN  8
		TASK_NAME=MODE_INTERVAL
		PROGRAM=BeamAdjust 1.2
		MEAS_DATE=07-Oct-2010 14:05:23
		LINAC=A4
		MODALITY=X
		INPLANE_AXIS_DIR=TARGET_GUN
		CROSSPLANE_AXIS_DIR=LEFT_RIGHT
		DEPTH_AXIS_DIR=UP_DOWN
		ENERGY=6.00
		SSD=950.00
		WEDGE=None
		FIELD_INPLANE=100.00
		FIELD_CROSSPLANE=100.00
		FIELD_TYPE=RECTANGULAR
		GANTRY=0.00
		GANTRY_UPRIGHT_POSITION=0
		GANTRY_ROTATION=CW
		COLL_ANGLE=90.00
		COLL_OFFSET_INPLANE=0.00
		COLL_OFFSET_CROSSPLANE=0.00
		SCAN_DEVICE=STARCHECK
		ELECTROMETER=2D_ARRAY_INTERFACE
		DETECTOR=STARCHECK
		SCAN_CURVETYPE=INPLANE_PROFILE
		SCAN_DEPTH=0.00
		SCAN_OFFAXIS_CROSSPLANE=-130.00
		SCAN_ANGLE=0.00
		SCAN_DIAGONAL=NOT_DIAGONAL
		MEAS_PRESET=TIME_PRESET
		MEAS_TIME=10.000
		MEAS_UNIT=GY
		PRESSURE=1013.25
		TEMPERATURE=20.00
		NORM_TEMPERATURE=20.00
		CORRECTION_FACTOR=1.0000
		CORRECTIONS=AIR_DENSITY_CORR;
		BEGIN_DATA
			-130.00		2.9931E-03
			-125.00		2.9134E-03
			-120.00		3.2031E-03
			-115.00		3.5861E-03
			-110.00		3.7015E-03
			-105.00		4.0028E-03
			-100.00		4.3841E-03
			-95.00		4.9472E-03
			-90.00		4.9560E-03
			-85.00		5.0667E-03
			-80.00		4.6792E-03
			-75.00		5.6188E-03
			-70.00		5.4323E-03
			-65.00		5.3541E-03
			-60.00		6.3309E-03
			-55.00		6.7017E-03
			-50.00		4.9296E-03
			-45.00		5.4597E-03
			-40.00		5.3760E-03
			-35.00		6.1776E-03
			-30.00		5.8910E-03
			-25.00		5.9039E-03
			-20.00		6.3683E-03
			-15.00		5.7019E-03
			-10.00		6.0961E-03
			-5.00		6.8854E-03
			0.00		6.9384E-03
			5.00		7.1825E-03
			10.00		6.9382E-03
			15.00		6.3046E-03
			20.00		6.4626E-03
			25.00		5.7624E-03
			30.00		6.2814E-03
			35.00		6.3659E-03
			40.00		5.8327E-03
			45.00		5.3134E-03
			50.00		5.5695E-03
			55.00		5.1393E-03
			60.00		5.2248E-03
			65.00		4.5153E-03
			70.00		3.9968E-03
			75.00		4.5500E-03
			80.00		4.6457E-03
			85.00		3.8801E-03
			90.00		3.9036E-03
			95.00		3.6618E-03
			100.00		3.4194E-03
			105.00		2.6236E-03
			110.00		2.9616E-03
			115.00		2.8030E-03
			120.00		2.6419E-03
			125.00		2.7566E-03
			130.00		1.9455E-03
		END_DATA
	END_SCAN  8
	BEGIN_SCAN  9
		TASK_NAME=MODE_INTERVAL
		PROGRAM=BeamAdjust 1.2
		MEAS_DATE=07-Oct-2010 14:05:23
		LINAC=A4
		MODALITY=X
		INPLANE_AXIS_DIR=TARGET_GUN
		CROSSPLANE_AXIS_DIR=LEFT_RIGHT
		DEPTH_AXIS_DIR=UP_DOWN
		ENERGY=6.00
		SSD=950.00
		WEDGE=None
		FIELD_INPLANE=100.00
		FIELD_CROSSPLANE=100.00
		FIELD_TYPE=RECTANGULAR
		GANTRY=0.00
		GANTRY_UPRIGHT_POSITION=0
		GANTRY_ROTATION=CW
		COLL_ANGLE=90.00
		COLL_OFFSET_INPLANE=0.00
		COLL_OFFSET_CROSSPLANE=0.00
		SCAN_DEVICE=STARCHECK
		ELECTROMETER=2D_ARRAY_INTERFACE
		DETECTOR=STARCHECK
		SCAN_CURVETYPE=INPLANE_PROFILE
		SCAN_DEPTH=0.00
		SCAN_OFFAXIS_CROSSPLANE=-100.00
		SCAN_ANGLE=0.00
		SCAN_DIAGONAL=NOT_DIAGONAL
		MEAS_PRESET=TIME_PRESET
		MEAS_TIME=10.000
		MEAS_UNIT=GY
		PRESSURE=1013.25
		TEMPERATURE=20.00
		NORM_TEMPERATURE=20.00
		CORRECTION_FACTOR=1.0000
		CORRECTIONS=AIR_DENSITY_CORR;
		BEGIN_DATA
			-60.00		9.8919E-03
			-30.00		12.459E-03
			30.00		11.857E-03
			60.00		9.7754E-03
		END_DATA
	END_SCAN  9
	BEGIN_SCAN  10
		TASK_NAME=MODE_INTERVAL
		PROGRAM=BeamAdjust 1.2
		MEAS_DATE=07-Oct-2010 14:05:23
		LINAC=A4
		MODALITY=X
		INPLANE_AXIS_DIR=TARGET_GUN
		CROSSPLANE_AXIS_DIR=LEFT_RIGHT
		DEPTH_AXIS_DIR=UP_DOWN
		ENERGY=6.00
		SSD=950.00
		WEDGE=None
		FIELD_INPLANE=100.00
		FIELD_CROSSPLANE=100.00
		FIELD_TYPE=RECTANGULAR
		GANTRY=0.00
		GANTRY_UPRIGHT_POSITION=0
		GANTRY_ROTATION=CW
		COLL_ANGLE=90.00
		COLL_OFFSET_INPLANE=0.00
		COLL_OFFSET_CROSSPLANE=0.00
		SCAN_DEVICE=STARCHECK
		ELECTROMETER=2D_ARRAY_INTERFACE
		DETECTOR=STARCHECK
		SCAN_CURVETYPE=INPLANE_PROFILE
		SCAN_DEPTH=0.00
		SCAN_OFFAXIS_CROSSPLANE=-50.00
		SCAN_ANGLE=0.00
		SCAN_DIAGONAL=NOT_DIAGONAL
		MEAS_PRESET=TIME_PRESET
		MEAS_TIME=10.000
		MEAS_UNIT=GY
		PRESSURE=1013.25
		TEMPERATURE=20.00
		NORM_TEMPERATURE=20.00
		CORRECTION_FACTOR=1.0000
		CORRECTIONS=AIR_DENSITY_CORR;
		BEGIN_DATA
			-30.00		641.43E-03
			-15.00		642.92E-03
			15.00		643.36E-03
			30.00		637.49E-03
		END_DATA
	END_SCAN  10
	BEGIN_SCAN  11
		TASK_NAME=MODE_INTERVAL
		PROGRAM=BeamAdjust 1.2
		MEAS_DATE=07-Oct-2010 14:05:23
		LINAC=A4
		MODALITY=X
		INPLANE_AXIS_DIR=TARGET_GUN
		CROSSPLANE_AXIS_DIR=LEFT_RIGHT
		DEPTH_AXIS_DIR=UP_DOWN
		ENERGY=6.00
		SSD=950.00
		WEDGE=None
		FIELD_INPLANE=100.00
		FIELD_CROSSPLANE=100.00
		FIELD_TYPE=RECTANGULAR
		GANTRY=0.00
		GANTRY_UPRIGHT_POSITION=0
		GANTRY_ROTATION=CW
		COLL_ANGLE=90.00
		COLL_OFFSET_INPLANE=0.00
		COLL_OFFSET_CROSSPLANE=0.00
		SCAN_DEVICE=STARCHECK
		ELECTROMETER=2D_ARRAY_INTERFACE
		DETECTOR=STARCHECK
		SCAN_CURVETYPE=INPLANE_PROFILE
		SCAN_DEPTH=0.00
		SCAN_OFFAXIS_CROSSPLANE=0.00
		SCAN_ANGLE=0.00
		SCAN_DIAGONAL=NOT_DIAGONAL
		MEAS_PRESET=TIME_PRESET
		MEAS_TIME=10.000
		MEAS_UNIT=GY
		PRESSURE=1013.25
		TEMPERATURE=20.00
		NORM_TEMPERATURE=20.00
		CORRECTION_FACTOR=1.0000
		CORRECTIONS=AIR_DENSITY_CORR;
		BEGIN_DATA
			-126.00		9.1775E-03
			-123.00		8.8566E-03
			-120.00		10.275E-03
			-117.00		11.649E-03
			-114.00		11.832E-03
			-111.00		12.702E-03
			-108.00		14.116E-03
			-105.00		14.756E-03
			-102.00		16.034E-03
			-99.00		16.513E-03
			-96.00		18.334E-03
			-93.00		20.151E-03
			-90.00		21.644E-03
			-87.00		23.688E-03
			-84.00		25.535E-03
			-81.00		28.318E-03
			-78.00		30.451E-03
			-75.00		33.096E-03
			-72.00		36.459E-03
			-69.00		40.540E-03
			-66.00		46.446E-03
			-63.00		52.389E-03
			-60.00		62.423E-03
			-57.00		81.656E-03
			-54.00		130.30E-03
			-51.00		292.31E-03
			-48.00		549.38E-03
			-45.00		622.61E-03
			-42.00		643.17E-03
			-39.00		652.37E-03
			-36.00		658.13E-03
			-33.00		661.55E-03
			-30.00		665.45E-03
			-27.00		666.84E-03
			-24.00		666.50E-03
			-21.00		665.20E-03
			-18.00		671.23E-03
			-15.00		669.63E-03
			-12.00		671.82E-03
			-9.00		672.07E-03
			-6.00		669.94E-03
			0.00		669.38E-03
			6.00		673.02E-03
			9.00		672.22E-03
			12.00		670.71E-03
			15.00		668.99E-03
			18.00		665.23E-03
			21.00		665.14E-03
			24.00		661.45E-03
			27.00		663.28E-03
			30.00		658.68E-03
			33.00		656.74E-03
			36.00		654.53E-03
			39.00		642.98E-03
			42.00		631.68E-03
			45.00		598.83E-03
			48.00		439.64E-03
			51.00		192.73E-03
			54.00		99.627E-03
			57.00		69.973E-03
			60.00		56.862E-03
			63.00		48.416E-03
			66.00		43.867E-03
			69.00		38.271E-03
			72.00		35.188E-03
			75.00		31.098E-03
			78.00		28.050E-03
			81.00		26.424E-03
			84.00		24.388E-03
			87.00		22.185E-03
			90.00		21.260E-03
			93.00		19.074E-03
			96.00		18.201E-03
			99.00		16.366E-03
			102.00		14.617E-03
			105.00		14.007E-03
			108.00		14.228E-03
			111.00		11.979E-03
			114.00		11.296E-03
			117.00		10.835E-03
			120.00		9.7863E-03
			123.00		9.2154E-03
			126.00		8.6123E-03
		END_DATA
	END_SCAN  11
	BEGIN_SCAN  12
		TASK_NAME=MODE_INTERVAL
		PROGRAM=BeamAdjust 1.2
		MEAS_DATE=07-Oct-2010 14:05:23
		LINAC=A4
		MODALITY=X
		INPLANE_AXIS_DIR=TARGET_GUN
		CROSSPLANE_AXIS_DIR=LEFT_RIGHT
		DEPTH_AXIS_DIR=UP_DOWN
		ENERGY=6.00
		SSD=950.00
		WEDGE=None
		FIELD_INPLANE=100.00
		FIELD_CROSSPLANE=100.00
		FIELD_TYPE=RECTANGULAR
		GANTRY=0.00
		GANTRY_UPRIGHT_POSITION=0
		GANTRY_ROTATION=CW
		COLL_ANGLE=90.00
		COLL_OFFSET_INPLANE=0.00
		COLL_OFFSET_CROSSPLANE=0.00
		SCAN_DEVICE=STARCHECK
		ELECTROMETER=2D_ARRAY_INTERFACE
		DETECTOR=STARCHECK
		SCAN_CURVETYPE=INPLANE_PROFILE
		SCAN_DEPTH=0.00
		SCAN_OFFAXIS_CROSSPLANE=50.00
		SCAN_ANGLE=0.00
		SCAN_DIAGONAL=NOT_DIAGONAL
		MEAS_PRESET=TIME_PRESET
		MEAS_TIME=10.000
		MEAS_UNIT=GY
		PRESSURE=1013.25
		TEMPERATURE=20.00
		NORM_TEMPERATURE=20.00
		CORRECTION_FACTOR=1.0000
		CORRECTIONS=AIR_DENSITY_CORR;
		BEGIN_DATA
			-30.00		58.502E-03
			-15.00		63.782E-03
			15.00		63.938E-03
			30.00		60.339E-03
		END_DATA
	END_SCAN  12
	BEGIN_SCAN  13
		TASK_NAME=MODE_INTERVAL
		PROGRAM=BeamAdjust 1.2
		MEAS_DATE=07-Oct-2010 14:05:23
		LINAC=A4
		MODALITY=X
		INPLANE_AXIS_DIR=TARGET_GUN
		CROSSPLANE_AXIS_DIR=LEFT_RIGHT
		DEPTH_AXIS_DIR=UP_DOWN
		ENERGY=6.00
		SSD=950.00
		WEDGE=None
		FIELD_INPLANE=100.00
		FIELD_CROSSPLANE=100.00
		FIELD_TYPE=RECTANGULAR
		GANTRY=0.00
		GANTRY_UPRIGHT_POSITION=0
		GANTRY_ROTATION=CW
		COLL_ANGLE=90.00
		COLL_OFFSET_INPLANE=0.00
		COLL_OFFSET_CROSSPLANE=0.00
		SCAN_DEVICE=STARCHECK
		ELECTROMETER=2D_ARRAY_INTERFACE
		DETECTOR=STARCHECK
		SCAN_CURVETYPE=INPLANE_PROFILE
		SCAN_DEPTH=0.00
		SCAN_OFFAXIS_CROSSPLANE=100.00
		SCAN_ANGLE=0.00
		SCAN_DIAGONAL=NOT_DIAGONAL
		MEAS_PRESET=TIME_PRESET
		MEAS_TIME=10.000
		MEAS_UNIT=GY
		PRESSURE=1013.25
		TEMPERATURE=20.00
		NORM_TEMPERATURE=20.00
		CORRECTION_FACTOR=1.0000
		CORRECTIONS=AIR_DENSITY_CORR;
		BEGIN_DATA
			-60.00		7.1739E-03
			-30.00		9.5777E-03
			30.00		8.9692E-03
			60.00		6.5847E-03
		END_DATA
	END_SCAN  13
	BEGIN_SCAN  14
		TASK_NAME=MODE_INTERVAL
		PROGRAM=BeamAdjust 1.2
		MEAS_DATE=07-Oct-2010 14:05:23
		LINAC=A4
		MODALITY=X
		INPLANE_AXIS_DIR=TARGET_GUN
		CROSSPLANE_AXIS_DIR=LEFT_RIGHT
		DEPTH_AXIS_DIR=UP_DOWN
		ENERGY=6.00
		SSD=950.00
		WEDGE=None
		FIELD_INPLANE=100.00
		FIELD_CROSSPLANE=100.00
		FIELD_TYPE=RECTANGULAR
		GANTRY=0.00
		GANTRY_UPRIGHT_POSITION=0
		GANTRY_ROTATION=CW
		COLL_ANGLE=90.00
		COLL_OFFSET_INPLANE=0.00
		COLL_OFFSET_CROSSPLANE=0.00
		SCAN_DEVICE=STARCHECK
		ELECTROMETER=2D_ARRAY_INTERFACE
		DETECTOR=STARCHECK
		SCAN_CURVETYPE=INPLANE_PROFILE
		SCAN_DEPTH=0.00
		SCAN_OFFAXIS_CROSSPLANE=130.00
		SCAN_ANGLE=0.00
		SCAN_DIAGONAL=NOT_DIAGONAL
		MEAS_PRESET=TIME_PRESET
		MEAS_TIME=10.000
		MEAS_UNIT=GY
		PRESSURE=1013.25
		TEMPERATURE=20.00
		NORM_TEMPERATURE=20.00
		CORRECTION_FACTOR=1.0000
		CORRECTIONS=AIR_DENSITY_CORR;
		BEGIN_DATA
			-130.00		1.7235E-03
			-125.00		2.3801E-03
			-120.00		2.2142E-03
			-115.00		3.2799E-03
			-110.00		2.4497E-03
			-105.00		2.5451E-03
			-100.00		2.6464E-03
			-95.00		2.8904E-03
			-90.00		2.3815E-03
			-85.00		3.3670E-03
			-80.00		3.2934E-03
			-75.00		3.2642E-03
			-70.00		3.5078E-03
			-65.00		3.6337E-03
			-60.00		4.2250E-03
			-55.00		4.0461E-03
			-50.00		3.8573E-03
			-45.00		4.8670E-03
			-40.00		4.3557E-03
			-35.00		4.6398E-03
			-30.00		4.9608E-03
			-25.00		4.3122E-03
			-20.00		4.8921E-03
			-15.00		4.8881E-03
			-10.00		4.0009E-03
			-5.00		5.2553E-03
			0.00		5.6878E-03
			5.00		5.0948E-03
			10.00		5.2267E-03
			15.00		4.8211E-03
			20.00		4.8111E-03
			25.00		5.1826E-03
			30.00		4.6999E-03
			35.00		4.3982E-03
			40.00		5.0355E-03
			45.00		4.6711E-03
			50.00		4.2706E-03
			55.00		4.4616E-03
			60.00		4.2904E-03
			65.00		3.6494E-03
			70.00		3.4957E-03
			75.00		3.8639E-03
			80.00		3.4550E-03
			85.00		3.2752E-03
			90.00		3.3060E-03
			95.00		3.3326E-03
			100.00		3.1398E-03
			105.00		2.9046E-03
			110.00		2.2023E-03
			115.00		2.3970E-03
			120.00		2.6622E-03
			125.00		2.2358E-03
			130.00		1.8701E-03
		END_DATA
	END_SCAN  14
	BEGIN_SCAN  15
		TASK_NAME=MODE_INTERVAL
		PROGRAM=BeamAdjust 1.2
		MEAS_DATE=07-Oct-2010 14:05:23
		LINAC=A4
		MODALITY=X
		INPLANE_AXIS_DIR=TARGET_GUN
		CROSSPLANE_AXIS_DIR=LEFT_RIGHT
		DEPTH_AXIS_DIR=UP_DOWN
		ENERGY=6.00
		SSD=950.00
		WEDGE=None
		FIELD_INPLANE=100.00
		FIELD_CROSSPLANE=100.00
		FIELD_TYPE=RECTANGULAR
		GANTRY=0.00
		GANTRY_UPRIGHT_POSITION=0
		GANTRY_ROTATION=CW
		COLL_ANGLE=90.00
		COLL_OFFSET_INPLANE=0.00
		COLL_OFFSET_CROSSPLANE=0.00
		SCAN_DEVICE=STARCHECK
		ELECTROMETER=2D_ARRAY_INTERFACE
		DETECTOR=STARCHECK
		SCAN_CURVETYPE=INPLANE_PROFILE
		SCAN_DEPTH=0.00
		SCAN_OFFAXIS_CROSSPLANE=0.00
		SCAN_ANGLE=0.00
		SCAN_DIAGONAL=FIRST_DIAGONAL
		MEAS_PRESET=TIME_PRESET
		MEAS_TIME=10.000
		MEAS_UNIT=GY
		PRESSURE=1013.25
		TEMPERATURE=20.00
		NORM_TEMPERATURE=20.00
		CORRECTION_FACTOR=1.0000
		CORRECTIONS=AIR_DENSITY_CORR;
		BEGIN_DATA
			-172.40		2.9808E-03
			-169.40		3.2827E-03
			-166.40		4.1255E-03
			-163.40		3.8226E-03
			-160.40		4.3175E-03
			-157.40		4.3091E-03
			-154.40		4.6122E-03
			-151.40		4.7784E-03
			-148.40		4.8796E-03
			-145.40		6.1010E-03
			-142.40		6.2384E-03
			-139.40		6.8348E-03
			-136.40		6.5903E-03
			-133.40		7.7455E-03
			-130.40		8.1367E-03
			-127.40		8.4520E-03
			-124.40		9.4245E-03
			-121.40		10.245E-03
			-118.40		11.259E-03
			-115.40		12.240E-03
			-112.40		13.244E-03
			-109.40		14.837E-03
			-106.40		15.970E-03
			-103.40		16.683E-03
			-100.40		18.315E-03
			-97.40		21.124E-03
			-94.40		23.395E-03
			-91.40		26.316E-03
			-88.40		30.323E-03
			-85.40		34.950E-03
			-82.40		43.121E-03
			-79.40		59.463E-03
			-76.40		107.62E-03
			-73.40		230.50E-03
			-70.40		388.96E-03
			-67.40		518.61E-03
			-64.40		593.11E-03
			-61.40		622.34E-03
			-58.40		635.82E-03
			-55.40		644.17E-03
			-52.40		649.43E-03
			-49.40		653.22E-03
			-46.40		655.44E-03
			-43.40		657.46E-03
			-40.40		659.89E-03
			-37.40		664.25E-03
			-34.40		663.35E-03
			-31.40		664.66E-03
			-28.40		663.11E-03
			-25.40		665.93E-03
			-22.40		667.40E-03
			-19.40		668.33E-03
			-16.40		670.55E-03
			-13.40		671.51E-03
			0.00		669.38E-03
			13.40		670.60E-03
			16.40		667.02E-03
			19.40		666.97E-03
			22.40		665.98E-03
			25.40		664.57E-03
			28.40		663.05E-03
			31.40		660.02E-03
			34.40		656.13E-03
			37.40		658.79E-03
			40.40		654.62E-03
			43.40		650.29E-03
			46.40		646.24E-03
			49.40		635.73E-03
			52.40		622.53E-03
			55.40		587.53E-03
			58.40		506.27E-03
			61.40		356.39E-03
			64.40		180.54E-03
			67.40		77.938E-03
			70.40		48.989E-03
			73.40		37.833E-03
			76.40		31.788E-03
			79.40		28.056E-03
			82.40		24.387E-03
			85.40		21.560E-03
			88.40		19.674E-03
			91.40		18.073E-03
			94.40		16.159E-03
			97.40		14.945E-03
			100.40		13.295E-03
			103.40		12.843E-03
			106.40		11.791E-03
			109.40		10.515E-03
			112.40		9.3489E-03
			115.40		9.0279E-03
			118.40		7.8699E-03
			121.40		8.1186E-03
			124.40		7.0781E-03
			127.40		6.9165E-03
			130.40		7.0230E-03
			133.40		5.4746E-03
			136.40		4.7754E-03
			139.40		4.6381E-03
			142.40		4.2434E-03
			145.40		4.3419E-03
			148.40		4.0156E-03
			151.40		3.7294E-03
			154.40		3.4351E-03
			157.40		3.3797E-03
			160.40		2.6551E-03
			163.40		2.6810E-03
			166.40		3.1131E-03
			169.40		2.3153E-03
			172.40		2.4758E-03
		END_DATA
	END_SCAN  15
	BEGIN_SCAN  16
		TASK_NAME=MODE_INTERVAL
		PROGRAM=BeamAdjust 1.2
		MEAS_DATE=07-Oct-2010 14:05:23
		LINAC=A4
		MODALITY=X
		INPLANE_AXIS_DIR=GUN_TARGET
		CROSSPLANE_AXIS_DIR=LEFT_RIGHT
		DEPTH_AXIS_DIR=UP_DOWN
		ENERGY=6.00
		SSD=950.00
		WEDGE=None
		FIELD_INPLANE=100.00
		FIELD_CROSSPLANE=100.00
		FIELD_TYPE=RECTANGULAR
		GANTRY=0.00
		GANTRY_UPRIGHT_POSITION=0
		GANTRY_ROTATION=CW
		COLL_ANGLE=90.00
		COLL_OFFSET_INPLANE=0.00
		COLL_OFFSET_CROSSPLANE=0.00
		SCAN_DEVICE=STARCHECK
		ELECTROMETER=2D_ARRAY_INTERFACE
		DETECTOR=STARCHECK
		SCAN_CURVETYPE=INPLANE_PROFILE
		SCAN_DEPTH=0.00
		SCAN_OFFAXIS_CROSSPLANE=0.00
		SCAN_ANGLE=0.00
		SCAN_DIAGONAL=SECOND_DIAGONAL
		MEAS_PRESET=TIME_PRESET
		MEAS_TIME=10.000
		MEAS_UNIT=GY
		PRESSURE=1013.25
		TEMPERATURE=20.00
		NORM_TEMPERATURE=20.00
		CORRECTION_FACTOR=1.0000
		CORRECTIONS=AIR_DENSITY_CORR;
		BEGIN_DATA
			-172.40		2.7745E-03
			-169.40		2.6739E-03
			-166.40		2.7073E-03
			-163.40		2.7654E-03
			-160.40		3.2775E-03
			-157.40		3.3717E-03
			-154.40		4.1353E-03
			-151.40		4.0128E-03
			-148.40		4.0458E-03
			-145.40		4.1099E-03
			-142.40		4.9118E-03
			-139.40		4.9758E-03
			-136.40		5.2915E-03
			-133.40		5.8256E-03
			-130.40		6.3195E-03
			-127.40		7.1984E-03
			-124.40		7.5842E-03
			-121.40		8.2742E-03
			-118.40		8.5913E-03
			-115.40		8.8684E-03
			-112.40		9.9583E-03
			-109.40		10.526E-03
			-106.40		11.772E-03
			-103.40		12.506E-03
			-100.40		13.994E-03
			-97.40		14.906E-03
			-94.40		16.295E-03
			-91.40		18.276E-03
			-88.40		19.289E-03
			-85.40		21.828E-03
			-82.40		24.566E-03
			-79.40		27.868E-03
			-76.40		32.341E-03
			-73.40		39.145E-03
			-70.40		52.233E-03
			-67.40		83.435E-03
			-64.40		189.00E-03
			-61.40		348.86E-03
			-58.40		501.05E-03
			-55.40		590.91E-03
			-52.40		627.20E-03
			-49.40		641.48E-03
			-46.40		649.47E-03
			-43.40		654.46E-03
			-40.40		658.05E-03
			-37.40		662.47E-03
			-34.40		662.51E-03
			-31.40		664.45E-03
			-28.40		667.64E-03
			-25.40		666.46E-03
			-22.40		664.66E-03
			-19.40		667.97E-03
			-16.40		668.80E-03
			-13.40		671.29E-03
			0.00		669.38E-03
			13.40		673.62E-03
			16.40		671.13E-03
			19.40		667.32E-03
			22.40		664.08E-03
			25.40		663.70E-03
			28.40		662.87E-03
			31.40		661.86E-03
			34.40		659.29E-03
			37.40		659.63E-03
			40.40		658.08E-03
			43.40		655.95E-03
			46.40		654.61E-03
			49.40		651.02E-03
			52.40		643.65E-03
			55.40		636.71E-03
			58.40		628.49E-03
			61.40		605.38E-03
			64.40		546.76E-03
			67.40		434.08E-03
			70.40		283.00E-03
			73.40		148.42E-03
			76.40		76.702E-03
			79.40		49.897E-03
			82.40		39.398E-03
			85.40		33.086E-03
			88.40		28.820E-03
			91.40		25.939E-03
			94.40		22.804E-03
			97.40		21.017E-03
			100.40		17.899E-03
			103.40		16.212E-03
			106.40		15.380E-03
			109.40		13.821E-03
			112.40		12.999E-03
			115.40		11.483E-03
			118.40		10.718E-03
			121.40		10.405E-03
			124.40		8.5267E-03
			127.40		8.4529E-03
			130.40		8.1057E-03
			133.40		7.3148E-03
			136.40		6.6586E-03
			139.40		6.5116E-03
			142.40		6.2301E-03
			145.40		5.9551E-03
			148.40		5.4049E-03
			151.40		4.6412E-03
			154.40		4.3292E-03
			157.40		4.5338E-03
			160.40		4.1350E-03
			163.40		4.4471E-03
			166.40		4.0149E-03
			169.40		2.8118E-03
			172.40		2.9455E-03
		END_DATA
	END_SCAN  16
END_SCAN_DATA
